"type","begin_time","frequency","count","created with version","exported with version","project","last_name","first_name","born","sex","measurement_date","record_name"
"record","0.00000","2000","33640","Noraxon MR3 3.20.68","3.20.68","Kevin test","KEVIN","","","male","2025-07-17T16:09:36.565+08:00","EMG 2 channel recording-3"

"time","Activity","Marker","RT VMO (uV)","RT SEMITEND. (uV)"
0.00000,"Activity",,-2.162746977,1.217879733
0.00050,,,-1.247163754,2.133462956
0.00100,,,-0.6367749386,2.438657364
0.00150,,,-0.9419693463,2.438657364
0.00200,,,-1.552358162,2.438657364
0.00250,,,-1.857552569,2.743851771
0.00300,,,-0.6367749386,3.049046179
0.00350,,,0.5840026922,3.049046179
0.00400,,,1.804780323,2.743851771
0.00450,,,1.804780323,3.049046179
0.00500,,,1.499585915,3.964629402
0.00550,,,1.499585915,4.880212625
0.00600,,,1.804780323,4.575018218
0.00650,,,2.415169138,3.964629402
0.00700,,,2.720363546,3.964629402
0.00750,,,3.025557954,4.26982381
0.00800,,,3.025557954,3.964629402
0.00850,,,2.720363546,3.049046179
0.00900,,,1.194391508,3.049046179
0.00950,,,-0.6367749386,3.964629402
0.01000,,,-1.552358162,3.964629402
0.01050,,,-0.0263861232,3.049046179
0.01100,,,2.720363546,2.438657364
0.01150,,,3.635946769,3.049046179
0.01200,,,2.415169138,3.659434994
0.01250,,,2.109974731,3.049046179
0.01300,,,3.635946769,2.743851771
0.01350,,,5.772307623,3.964629402
0.01400,,,6.687890846,4.880212625
0.01450,,,6.382696439,4.880212625
0.01500,,,4.8567244,3.964629402
0.01550,,,0.8891970999,2.743851771
0.01600,,,-4.604302239,1.217879733
0.01650,,,-9.182218354,0.3022965098
0.01700,,,-8.877023947,-0.002897897924
0.01750,,,-5.214691054,1.217879733
0.01800,,,-1.247163754,1.828268548
0.01850,,,-0.0263861232,1.523074141
0.01900,,,-0.0263861232,1.523074141
0.01950,,,-1.247163754,2.438657364
0.02000,,,-3.383524608,3.354240587
0.02050,,,-4.299107831,3.049046179
0.02100,,,-3.0783302,2.743851771
0.02150,,,-1.247163754,3.964629402
0.02200,,,-0.9419693463,5.795795848
0.02250,,,-1.247163754,5.795795848
0.02300,,,-0.0263861232,5.185407033
0.02350,,,2.109974731,5.490601441
0.02400,,,2.415169138,6.406184664
0.02450,,,1.194391508,5.795795848
0.02500,,,0.2788082845,4.26982381
0.02550,,,0.8891970999,3.964629402
0.02600,,,1.804780323,4.575018218
0.02650,,,1.804780323,4.880212625
0.02700,,,2.109974731,4.26982381
0.02750,,,2.109974731,4.880212625
0.02800,,,1.499585915,6.406184664
0.02850,,,0.2788082845,6.711379072
0.02900,,,0.5840026922,4.880212625
0.02950,,,2.109974731,3.964629402
0.03000,,,3.330752362,4.575018218
0.03050,,,3.025557954,5.490601441
0.03100,,,2.415169138,5.490601441
0.03150,,,1.804780323,5.490601441
0.03200,,,0.8891970999,7.016573479
0.03250,,,0.5840026922,8.542545518
0.03300,,,1.194391508,8.847739925
0.03350,,,2.415169138,8.847739925
0.03400,,,3.330752362,9.458128741
0.03450,,,3.025557954,10.06851756
0.03500,,,1.194391508,9.152934333
0.03550,,,-1.857552569,7.626962295
0.03600,,,-5.519885462,6.406184664
0.03650,,,-5.82507987,5.185407033
0.03700,,,-2.467941385,4.26982381
0.03750,,,-0.0263861232,4.575018218
0.03800,,,-0.9419693463,5.795795848
0.03850,,,-4.909496646,6.406184664
0.03900,,,-7.0458575,5.185407033
0.03950,,,-6.130274277,3.964629402
0.04000,,,-5.214691054,3.964629402
0.04050,,,-6.130274277,4.26982381
0.04100,,,-7.0458575,3.659434994
0.04150,,,-6.435468685,2.438657364
0.04200,,,-5.82507987,2.743851771
0.04250,,,-5.82507987,3.964629402
0.04300,,,-5.82507987,3.964629402
0.04350,,,-4.604302239,3.964629402
0.04400,,,-3.0783302,3.964629402
0.04450,,,-2.162746977,3.964629402
0.04500,,,-1.857552569,2.743851771
0.04550,,,-0.6367749386,1.828268548
0.04600,,,0.5840026922,2.743851771
0.04650,,,1.499585915,3.964629402
0.04700,,,2.415169138,3.964629402
0.04750,,,3.941141177,3.354240587
0.04800,,,5.161918808,4.26982381
0.04850,,,5.467113215,6.406184664
0.04900,,,3.941141177,7.016573479
0.04950,,,2.109974731,5.490601441
0.05000,,,0.8891970999,4.575018218
0.05050,,,0.2788082845,4.880212625
0.05100,,,0.8891970999,5.185407033
0.05150,,,2.109974731,3.964629402
0.05200,,,3.330752362,3.354240587
0.05250,,,4.551529992,4.880212625
0.05300,,,5.772307623,7.626962295
0.05350,,,6.687890846,8.542545518
0.05400,,,6.993085254,7.016573479
0.05450,,,6.077502031,5.490601441
0.05500,,,5.467113215,4.880212625
0.05550,,,4.551529992,4.880212625
0.05600,,,2.720363546,5.185407033
0.05650,,,0.8891970999,5.490601441
0.05700,,,-0.0263861232,5.490601441
0.05750,,,0.8891970999,4.26982381
0.05800,,,1.499585915,3.354240587
0.05850,,,0.8891970999,3.354240587
0.05900,,,0.5840026922,4.575018218
0.05950,,,1.499585915,5.490601441
0.06000,,,2.415169138,5.490601441
0.06050,,,1.499585915,4.575018218
0.06100,,,-0.0263861232,4.26982381
0.06150,,,-0.0263861232,4.880212625
0.06200,,,2.720363546,4.880212625
0.06250,,,5.161918808,3.659434994
0.06300,,,4.8567244,1.523074141
0.06350,,,1.804780323,0.6074909175
0.06400,,,-1.552358162,1.217879733
0.06450,,,-3.993913423,2.438657364
0.06500,,,-3.688719016,3.049046179
0.06550,,,-1.247163754,3.049046179
0.06600,,,1.499585915,3.659434994
0.06650,,,3.025557954,4.26982381
0.06700,,,2.109974731,5.185407033
0.06750,,,-0.3315805309,5.185407033
0.06800,,,-2.162746977,3.964629402
0.06850,,,-1.857552569,2.438657364
0.06900,,,-0.0263861232,1.217879733
0.06950,,,1.194391508,1.828268548
0.07000,,,0.5840026922,3.354240587
0.07050,,,0.2788082845,4.880212625
0.07100,,,1.499585915,5.490601441
0.07150,,,2.109974731,4.880212625
0.07200,,,0.2788082845,3.964629402
0.07250,,,-2.162746977,3.964629402
0.07300,,,-3.0783302,4.575018218
0.07350,,,-1.247163754,4.880212625
0.07400,,,1.194391508,4.575018218
0.07450,,,1.499585915,3.964629402
0.07500,,,-0.0263861232,3.659434994
0.07550,,,-2.467941385,3.659434994
0.07600,,,-4.299107831,3.964629402
0.07650,,,-4.604302239,3.964629402
0.07700,,,-3.0783302,4.575018218
0.07750,,,-0.9419693463,4.575018218
0.07800,,,0.5840026922,4.26982381
0.07850,,,1.499585915,3.964629402
0.07900,,,1.804780323,3.354240587
0.07950,,,1.804780323,3.659434994
0.08000,,,1.804780323,3.659434994
0.08050,,,2.415169138,3.049046179
0.08100,,,3.330752362,2.438657364
0.08150,,,3.635946769,3.049046179
0.08200,,,3.941141177,4.26982381
0.08250,,,5.467113215,5.795795848
0.08300,,,6.687890846,5.795795848
0.08350,,,3.941141177,3.964629402
0.08400,,,-1.247163754,1.828268548
0.08450,,,-5.214691054,0.3022965098
0.08500,,,-4.909496646,0.3022965098
0.08550,,,-2.467941385,1.523074141
0.08600,,,-1.857552569,2.133462956
0.08650,,,-1.552358162,2.133462956
0.08700,,,-0.0263861232,2.743851771
0.08750,,,1.194391508,3.964629402
0.08800,,,0.2788082845,4.26982381
0.08850,,,-1.857552569,3.659434994
0.08900,,,-2.467941385,3.049046179
0.08950,,,-0.9419693463,3.659434994
0.09000,,,0.2788082845,4.575018218
0.09050,,,-0.0263861232,4.26982381
0.09100,,,-0.9419693463,3.964629402
0.09150,,,-1.247163754,3.964629402
0.09200,,,-0.6367749386,3.964629402
0.09250,,,-0.0263861232,3.659434994
0.09300,,,-0.3315805309,3.049046179
0.09350,,,-2.773135793,3.354240587
0.09400,,,-5.519885462,3.659434994
0.09450,,,-6.740663093,3.049046179
0.09500,,,-5.519885462,2.438657364
0.09550,,,-2.467941385,3.049046179
0.09600,,,0.2788082845,3.964629402
0.09650,,,3.330752362,4.575018218
0.09700,,,5.161918808,4.575018218
0.09750,,,4.551529992,4.575018218
0.09800,,,0.8891970999,3.964629402
0.09850,,,-3.688719016,2.438657364
0.09900,,,-6.740663093,-0.002897897924
0.09950,,,-8.266635131,-0.6132867133
0.10000,,,-7.351051908,0.6074909175
0.10050,,,-5.214691054,2.133462956
0.10100,,,-2.773135793,3.354240587
0.10150,,,-1.857552569,3.964629402
0.10200,,,-1.247163754,3.964629402
0.10250,,,-0.0263861232,3.354240587
0.10300,,,1.804780323,3.354240587
0.10350,,,1.804780323,4.26982381
0.10400,,,-0.0263861232,5.185407033
0.10450,,,-1.552358162,4.880212625
0.10500,,,-0.0263861232,3.964629402
0.10550,,,1.804780323,3.659434994
0.10600,,,2.109974731,4.575018218
0.10650,,,1.194391508,5.795795848
0.10700,,,1.194391508,6.406184664
0.10750,,,2.109974731,6.711379072
0.10800,,,2.109974731,6.100990256
0.10850,,,0.8891970999,5.185407033
0.10900,,,0.2788082845,4.26982381
0.10950,,,0.8891970999,4.26982381
0.11000,,,2.109974731,4.880212625
0.11050,,,2.720363546,4.880212625
0.11100,,,1.499585915,3.964629402
0.11150,,,-0.6367749386,3.354240587
0.11200,,,-3.688719016,3.049046179
0.11250,,,-4.909496646,3.659434994
0.11300,,,-3.688719016,3.659434994
0.11350,,,-1.552358162,3.049046179
0.11400,,,-0.3315805309,2.743851771
0.11450,,,-0.9419693463,3.659434994
0.11500,,,-2.162746977,4.26982381
0.11550,,,-2.467941385,3.964629402
0.11600,,,-2.162746977,2.438657364
0.11650,,,-2.162746977,0.9126853252
0.11700,,,-3.0783302,0.9126853252
0.11750,,,-4.299107831,2.438657364
0.11800,,,-4.909496646,3.049046179
0.11850,,,-4.909496646,3.049046179
0.11900,,,-4.299107831,3.049046179
0.11950,,,-3.0783302,3.049046179
0.12000,,,-1.247163754,3.354240587
0.12050,,,0.2788082845,3.964629402
0.12100,,,0.5840026922,3.964629402
0.12150,,,-0.0263861232,4.26982381
0.12200,,,-1.247163754,4.26982381
0.12250,,,-1.857552569,4.26982381
0.12300,,,-1.857552569,4.575018218
0.12350,,,-1.857552569,4.575018218
0.12400,,,-1.247163754,3.964629402
0.12450,,,-1.247163754,3.964629402
0.12500,,,-1.247163754,3.964629402
0.12550,,,-1.552358162,3.964629402
0.12600,,,-1.247163754,3.659434994
0.12650,,,-0.0263861232,3.049046179
0.12700,,,0.2788082845,2.743851771
0.12750,,,-0.0263861232,3.354240587
0.12800,,,-0.3315805309,3.964629402
0.12850,,,-0.0263861232,4.575018218
0.12900,,,0.5840026922,4.26982381
0.12950,,,1.194391508,3.354240587
0.13000,,,1.804780323,2.438657364
0.13050,,,2.720363546,2.743851771
0.13100,,,3.330752362,3.354240587
0.13150,,,3.025557954,3.354240587
0.13200,,,1.499585915,2.438657364
0.13250,,,0.5840026922,2.133462956
0.13300,,,1.194391508,3.354240587
0.13350,,,1.804780323,3.964629402
0.13400,,,2.415169138,3.964629402
0.13450,,,3.330752362,3.964629402
0.13500,,,6.077502031,4.26982381
0.13550,,,8.213862885,4.575018218
0.13600,,,8.519057292,4.26982381
0.13650,,,6.993085254,4.26982381
0.13700,,,6.077502031,4.880212625
0.13750,,,6.077502031,5.490601441
0.13800,,,6.993085254,5.490601441
0.13850,,,6.993085254,5.490601441
0.13900,,,6.077502031,5.185407033
0.13950,,,4.551529992,4.880212625
0.14000,,,4.246335585,3.964629402
0.14050,,,4.8567244,3.049046179
0.14100,,,5.467113215,2.133462956
0.14150,,,4.246335585,1.828268548
0.14200,,,1.804780323,2.438657364
0.14250,,,0.2788082845,3.354240587
0.14300,,,1.499585915,4.26982381
0.14350,,,3.025557954,4.880212625
0.14400,,,3.330752362,4.26982381
0.14450,,,1.499585915,3.049046179
0.14500,,,-0.0263861232,1.523074141
0.14550,,,-1.247163754,1.217879733
0.14600,,,-2.162746977,2.133462956
0.14650,,,-3.383524608,2.743851771
0.14700,,,-3.993913423,2.438657364
0.14750,,,-2.773135793,2.438657364
0.14800,,,-0.0263861232,3.354240587
0.14850,,,1.804780323,4.26982381
0.14900,,,3.025557954,4.880212625
0.14950,,,3.330752362,4.575018218
0.15000,,,3.941141177,4.26982381
0.15050,,,3.330752362,4.26982381
0.15100,,,1.194391508,4.26982381
0.15150,,,-1.552358162,3.964629402
0.15200,,,-3.0783302,3.964629402
0.15250,,,-3.993913423,4.26982381
0.15300,,,-5.214691054,5.185407033
0.15350,,,-6.435468685,5.185407033
0.15400,,,-6.130274277,4.26982381
0.15450,,,-5.214691054,3.049046179
0.15500,,,-6.435468685,2.743851771
0.15550,,,-9.487412762,3.354240587
0.15600,,,-11.62377362,3.659434994
0.15650,,,-11.62377362,3.049046179
0.15700,,,-11.62377362,1.828268548
0.15750,,,-12.23416243,2.743851771
0.15800,,,-11.62377362,4.575018218
0.15850,,,-7.961440723,6.100990256
0.15900,,,-4.299107831,5.185407033
0.15950,,,-3.993913423,3.354240587
0.16000,,,-4.604302239,2.743851771
0.16050,,,-3.0783302,3.354240587
0.16100,,,-0.0263861232,3.964629402
0.16150,,,0.8891970999,3.964629402
0.16200,,,-0.6367749386,3.964629402
0.16250,,,-2.467941385,3.964629402
0.16300,,,-2.467941385,3.049046179
0.16350,,,-1.247163754,1.523074141
0.16400,,,-0.0263861232,0.9126853252
0.16450,,,0.5840026922,2.133462956
0.16500,,,0.8891970999,3.659434994
0.16550,,,0.5840026922,4.26982381
0.16600,,,0.2788082845,4.575018218
0.16650,,,0.8891970999,5.185407033
0.16700,,,1.804780323,5.185407033
0.16750,,,1.804780323,4.575018218
0.16800,,,1.499585915,3.659434994
0.16850,,,1.499585915,3.659434994
0.16900,,,1.499585915,4.575018218
0.16950,,,0.2788082845,4.880212625
0.17000,,,-1.247163754,3.964629402
0.17050,,,-2.162746977,3.049046179
0.17100,,,-1.857552569,3.354240587
0.17150,,,-1.857552569,3.964629402
0.17200,,,-1.857552569,4.575018218
0.17250,,,-1.552358162,4.575018218
0.17300,,,-0.9419693463,5.490601441
0.17350,,,-1.247163754,6.711379072
0.17400,,,-1.857552569,6.100990256
0.17450,,,-0.9419693463,4.575018218
0.17500,,,1.499585915,3.659434994
0.17550,,,3.635946769,3.659434994
0.17600,,,3.025557954,3.964629402
0.17650,,,1.804780323,3.964629402
0.17700,,,2.720363546,4.575018218
0.17750,,,5.772307623,5.490601441
0.17800,,,6.993085254,5.795795848
0.17850,,,5.772307623,5.185407033
0.17900,,,4.8567244,4.575018218
0.17950,,,7.298279662,4.575018218
0.18000,,,9.739834923,4.880212625
0.18050,,,9.434640516,4.880212625
0.18100,,,6.993085254,5.185407033
0.18150,,,6.077502031,5.795795848
0.18200,,,7.298279662,6.100990256
0.18250,,,7.298279662,5.795795848
0.18300,,,4.8567244,5.185407033
0.18350,,,3.025557954,5.185407033
0.18400,,,3.025557954,5.185407033
0.18450,,,1.804780323,3.964629402
0.18500,,,-4.604302239,2.438657364
0.18550,,,-12.53935684,1.523074141
0.18600,,,-15.89649532,2.438657364
0.18650,,,-12.84455125,3.964629402
0.18700,,,-8.571829539,4.26982381
0.18750,,,-7.351051908,3.659434994
0.18800,,,-8.571829539,2.438657364
0.18850,,,-8.571829539,2.743851771
0.18900,,,-6.435468685,3.964629402
0.18950,,,-3.993913423,4.880212625
0.19000,,,-2.467941385,4.575018218
0.19050,,,-1.552358162,3.659434994
0.19100,,,-0.6367749386,2.133462956
0.19150,,,0.2788082845,1.828268548
0.19200,,,1.499585915,3.354240587
0.19250,,,2.109974731,5.490601441
0.19300,,,2.720363546,6.406184664
0.19350,,,2.720363546,4.575018218
0.19400,,,2.720363546,2.438657364
0.19450,,,2.415169138,1.523074141
0.19500,,,1.194391508,2.438657364
0.19550,,,-0.0263861232,2.438657364
0.19600,,,-0.0263861232,0.9126853252
0.19650,,,0.2788082845,-0.002897897924
0.19700,,,2.109974731,0.6074909175
0.19750,,,3.941141177,1.828268548
0.19800,,,4.246335585,1.828268548
0.19850,,,2.109974731,1.523074141
0.19900,,,-0.6367749386,2.438657364
0.19950,,,-2.467941385,3.354240587
0.20000,,,-2.162746977,3.659434994
0.20050,,,-0.3315805309,3.659434994
0.20100,,,0.8891970999,3.964629402
0.20150,,,1.804780323,3.964629402
0.20200,,,1.499585915,3.659434994
0.20250,,,0.2788082845,3.354240587
0.20300,,,-1.857552569,3.964629402
0.20350,,,-3.383524608,5.490601441
0.20400,,,-2.773135793,5.795795848
0.20450,,,-1.247163754,4.575018218
0.20500,,,-1.857552569,3.964629402
0.20550,,,-3.688719016,4.575018218
0.20600,,,-3.383524608,5.490601441
0.20650,,,-0.0263861232,5.490601441
0.20700,,,2.720363546,4.880212625
0.20750,,,3.330752362,5.185407033
0.20800,,,2.109974731,6.406184664
0.20850,,,1.499585915,7.626962295
0.20900,,,1.804780323,7.016573479
0.20950,,,1.499585915,5.490601441
0.21000,,,-0.0263861232,4.575018218
0.21050,,,-1.247163754,4.575018218
0.21100,,,-1.857552569,4.575018218
0.21150,,,-0.9419693463,4.26982381
0.21200,,,1.194391508,3.964629402
0.21250,,,4.246335585,3.964629402
0.21300,,,6.077502031,4.26982381
0.21350,,,6.077502031,4.26982381
0.21400,,,5.467113215,3.964629402
0.21450,,,6.077502031,3.964629402
0.21500,,,6.993085254,4.26982381
0.21550,,,6.687890846,4.575018218
0.21600,,,4.246335585,5.185407033
0.21650,,,1.194391508,5.490601441
0.21700,,,-1.247163754,4.575018218
0.21750,,,-3.383524608,3.049046179
0.21800,,,-3.993913423,2.438657364
0.21850,,,-3.0783302,3.659434994
0.21900,,,-2.467941385,4.880212625
0.21950,,,-3.383524608,4.880212625
0.22000,,,-4.909496646,3.964629402
0.22050,,,-4.909496646,4.26982381
0.22100,,,-3.383524608,5.795795848
0.22150,,,-2.162746977,7.016573479
0.22200,,,-2.162746977,7.321767887
0.22250,,,-2.773135793,7.321767887
0.22300,,,-2.467941385,7.626962295
0.22350,,,-1.857552569,7.321767887
0.22400,,,-1.247163754,6.100990256
0.22450,,,-1.857552569,5.185407033
0.22500,,,-2.467941385,5.185407033
0.22550,,,-2.467941385,4.575018218
0.22600,,,-1.857552569,4.26982381
0.22650,,,-1.247163754,4.575018218
0.22700,,,-1.247163754,5.795795848
0.22750,,,-1.247163754,6.100990256
0.22800,,,-0.6367749386,4.880212625
0.22850,,,0.5840026922,3.964629402
0.22900,,,1.499585915,3.964629402
0.22950,,,1.804780323,4.575018218
0.23000,,,2.109974731,4.26982381
0.23050,,,3.330752362,3.354240587
0.23100,,,3.941141177,2.438657364
0.23150,,,3.941141177,2.743851771
0.23200,,,3.330752362,3.964629402
0.23250,,,2.415169138,5.185407033
0.23300,,,2.109974731,5.490601441
0.23350,,,2.415169138,3.964629402
0.23400,,,3.330752362,2.743851771
0.23450,,,4.246335585,2.743851771
0.23500,,,4.8567244,3.964629402
0.23550,,,5.161918808,4.575018218
0.23600,,,5.772307623,4.575018218
0.23650,,,6.993085254,4.880212625
0.23700,,,7.603474069,6.711379072
0.23750,,,6.382696439,8.542545518
0.23800,,,4.246335585,8.847739925
0.23850,,,3.635946769,8.23735111
0.23900,,,4.551529992,7.932156702
0.23950,,,5.161918808,7.932156702
0.24000,,,3.941141177,6.406184664
0.24050,,,2.415169138,3.964629402
0.24100,,,1.804780323,2.133462956
0.24150,,,1.804780323,2.438657364
0.24200,,,1.499585915,3.659434994
0.24250,,,-0.0263861232,3.964629402
0.24300,,,-1.857552569,3.049046179
0.24350,,,-3.688719016,2.133462956
0.24400,,,-3.993913423,2.438657364
0.24450,,,-3.0783302,3.049046179
0.24500,,,-1.247163754,3.354240587
0.24550,,,-0.0263861232,3.049046179
0.24600,,,-0.0263861232,3.354240587
0.24650,,,-0.9419693463,3.354240587
0.24700,,,-2.162746977,3.354240587
0.24750,,,-2.467941385,3.049046179
0.24800,,,-1.552358162,3.354240587
0.24850,,,-1.247163754,3.964629402
0.24900,,,-1.552358162,4.575018218
0.24950,,,-1.857552569,4.880212625
0.25000,,,-0.6367749386,5.490601441
0.25050,,,0.2788082845,5.795795848
0.25100,,,0.5840026922,5.490601441
0.25150,,,-0.0263861232,4.575018218
0.25200,,,-0.3315805309,3.964629402
0.25250,,,-0.3315805309,3.964629402
0.25300,,,-0.6367749386,3.964629402
0.25350,,,-2.162746977,3.964629402
0.25400,,,-3.383524608,3.964629402
0.25450,,,-4.299107831,3.964629402
0.25500,,,-4.604302239,4.26982381
0.25550,,,-3.993913423,4.880212625
0.25600,,,-1.857552569,4.575018218
0.25650,,,0.5840026922,3.964629402
0.25700,,,2.109974731,3.659434994
0.25750,,,1.194391508,3.964629402
0.25800,,,0.2788082845,5.490601441
0.25850,,,0.8891970999,6.406184664
0.25900,,,2.720363546,5.795795848
0.25950,,,3.025557954,4.575018218
0.26000,,,2.109974731,4.575018218
0.26050,,,0.2788082845,4.880212625
0.26100,,,-0.9419693463,4.880212625
0.26150,,,-1.857552569,3.964629402
0.26200,,,-1.247163754,3.049046179
0.26250,,,1.194391508,3.354240587
0.26300,,,4.246335585,4.26982381
0.26350,,,5.772307623,5.185407033
0.26400,,,6.382696439,4.880212625
0.26450,,,6.687890846,4.575018218
0.26500,,,6.382696439,4.26982381
0.26550,,,4.246335585,3.964629402
0.26600,,,-0.0263861232,3.659434994
0.26650,,,-3.383524608,3.354240587
0.26700,,,-3.688719016,3.354240587
0.26750,,,-1.552358162,3.964629402
0.26800,,,0.2788082845,3.964629402
0.26850,,,1.499585915,3.659434994
0.26900,,,2.109974731,3.354240587
0.26950,,,2.415169138,3.964629402
0.27000,,,1.194391508,3.964629402
0.27050,,,-0.3315805309,3.964629402
0.27100,,,-0.9419693463,3.659434994
0.27150,,,-0.0263861232,3.964629402
0.27200,,,-0.0263861232,3.659434994
0.27250,,,-2.773135793,2.133462956
0.27300,,,-6.435468685,0.6074909175
0.27350,,,-7.351051908,0.3022965098
0.27400,,,-4.909496646,1.523074141
0.27450,,,-1.857552569,2.133462956
0.27500,,,-1.247163754,2.133462956
0.27550,,,-3.0783302,2.743851771
0.27600,,,-4.909496646,3.659434994
0.27650,,,-4.299107831,3.964629402
0.27700,,,-2.162746977,2.743851771
0.27750,,,-0.6367749386,1.828268548
0.27800,,,-0.0263861232,1.828268548
0.27850,,,0.2788082845,2.438657364
0.27900,,,1.499585915,2.438657364
0.27950,,,2.720363546,2.133462956
0.28000,,,3.025557954,3.049046179
0.28050,,,3.330752362,3.964629402
0.28100,,,3.941141177,4.575018218
0.28150,,,4.246335585,3.964629402
0.28200,,,3.941141177,3.049046179
0.28250,,,3.941141177,3.659434994
0.28300,,,4.8567244,4.880212625
0.28350,,,6.687890846,5.185407033
0.28400,,,7.603474069,4.26982381
0.28450,,,6.077502031,3.049046179
0.28500,,,3.330752362,2.133462956
0.28550,,,0.5840026922,2.438657364
0.28600,,,-1.552358162,3.049046179
0.28650,,,-3.383524608,3.049046179
0.28700,,,-4.909496646,3.049046179
0.28750,,,-5.214691054,3.049046179
0.28800,,,-4.299107831,3.049046179
0.28850,,,-1.857552569,3.049046179
0.28900,,,1.194391508,3.049046179
0.28950,,,3.025557954,3.964629402
0.29000,,,1.804780323,4.575018218
0.29050,,,-0.0263861232,3.964629402
0.29100,,,-1.247163754,3.049046179
0.29150,,,-1.552358162,2.743851771
0.29200,,,-2.467941385,3.659434994
0.29250,,,-3.993913423,4.26982381
0.29300,,,-3.688719016,3.964629402
0.29350,,,-1.552358162,3.049046179
0.29400,,,-0.0263861232,2.743851771
0.29450,,,-0.0263861232,2.438657364
0.29500,,,-0.0263861232,1.828268548
0.29550,,,0.5840026922,1.828268548
0.29600,,,0.2788082845,2.438657364
0.29650,,,-1.857552569,3.049046179
0.29700,,,-4.604302239,2.133462956
0.29750,,,-5.519885462,0.9126853252
0.29800,,,-5.519885462,1.217879733
0.29850,,,-5.82507987,2.133462956
0.29900,,,-6.435468685,3.354240587
0.29950,,,-6.435468685,3.354240587
0.30000,,,-4.299107831,2.743851771
0.30050,,,-1.247163754,2.133462956
0.30100,,,0.2788082845,3.049046179
0.30150,,,0.2788082845,4.26982381
0.30200,,,-0.0263861232,4.880212625
0.30250,,,-0.0263861232,3.964629402
0.30300,,,0.5840026922,3.964629402
0.30350,,,0.5840026922,4.880212625
0.30400,,,0.2788082845,7.016573479
0.30450,,,-0.0263861232,7.016573479
0.30500,,,0.2788082845,5.185407033
0.30550,,,-0.3315805309,4.26982381
0.30600,,,-3.688719016,4.880212625
0.30650,,,-6.740663093,4.880212625
0.30700,,,-6.435468685,3.659434994
0.30750,,,-2.773135793,2.438657364
0.30800,,,0.8891970999,3.659434994
0.30850,,,3.330752362,4.880212625
0.30900,,,3.025557954,4.26982381
0.30950,,,0.8891970999,3.049046179
0.31000,,,-2.162746977,2.743851771
0.31050,,,-4.909496646,3.964629402
0.31100,,,-5.519885462,4.26982381
0.31150,,,-4.604302239,3.354240587
0.31200,,,-2.773135793,2.438657364
0.31250,,,-0.0263861232,2.743851771
0.31300,,,2.109974731,3.049046179
0.31350,,,2.720363546,2.133462956
0.31400,,,1.499585915,1.523074141
0.31450,,,0.5840026922,2.743851771
0.31500,,,1.804780323,3.964629402
0.31550,,,3.941141177,4.575018218
0.31600,,,4.551529992,3.964629402
0.31650,,,3.330752362,3.049046179
0.31700,,,1.804780323,3.049046179
0.31750,,,-0.0263861232,2.133462956
0.31800,,,-1.552358162,1.217879733
0.31850,,,-2.162746977,0.9126853252
0.31900,,,-0.9419693463,2.133462956
0.31950,,,-0.0263861232,3.354240587
0.32000,,,-0.0263861232,3.659434994
0.32050,,,-1.857552569,3.659434994
0.32100,,,-3.383524608,3.964629402
0.32150,,,-4.299107831,4.575018218
0.32200,,,-4.909496646,4.880212625
0.32250,,,-5.214691054,5.185407033
0.32300,,,-5.214691054,5.185407033
0.32350,,,-5.519885462,4.26982381
0.32400,,,-6.740663093,2.438657364
0.32450,,,-7.656246316,0.3022965098
0.32500,,,-7.0458575,-0.002897897924
0.32550,,,-6.130274277,0.9126853252
0.32600,,,-6.130274277,1.523074141
0.32650,,,-6.740663093,1.523074141
0.32700,,,-6.130274277,1.828268548
0.32750,,,-3.383524608,3.049046179
0.32800,,,-0.0263861232,3.049046179
0.32850,,,1.499585915,2.133462956
0.32900,,,1.804780323,1.217879733
0.32950,,,0.8891970999,1.523074141
0.33000,,,0.5840026922,1.828268548
0.33050,,,1.804780323,1.217879733
0.33100,,,4.246335585,1.217879733
0.33150,,,6.382696439,2.743851771
0.33200,,,6.382696439,4.880212625
0.33250,,,5.161918808,5.795795848
0.33300,,,4.8567244,5.185407033
0.33350,,,5.467113215,4.575018218
0.33400,,,6.382696439,4.880212625
0.33450,,,6.687890846,5.795795848
0.33500,,,6.077502031,5.795795848
0.33550,,,5.467113215,4.880212625
0.33600,,,5.467113215,4.575018218
0.33650,,,6.077502031,5.185407033
0.33700,,,6.077502031,5.795795848
0.33750,,,4.551529992,5.490601441
0.33800,,,2.109974731,5.185407033
0.33850,,,0.8891970999,4.880212625
0.33900,,,0.5840026922,5.185407033
0.33950,,,-0.0263861232,5.185407033
0.34000,,,-0.9419693463,4.575018218
0.34050,,,-2.162746977,4.26982381
0.34100,,,-1.857552569,4.880212625
0.34150,,,-2.162746977,6.100990256
0.34200,,,-3.383524608,5.795795848
0.34250,,,-3.993913423,4.880212625
0.34300,,,-3.0783302,5.185407033
0.34350,,,-0.9419693463,6.711379072
0.34400,,,-0.0263861232,8.23735111
0.34450,,,0.2788082845,7.321767887
0.34500,,,0.2788082845,5.185407033
0.34550,,,0.2788082845,3.964629402
0.34600,,,0.2788082845,4.575018218
0.34650,,,0.5840026922,4.880212625
0.34700,,,1.804780323,3.964629402
0.34750,,,2.109974731,3.049046179
0.34800,,,0.5840026922,3.659434994
0.34850,,,-1.552358162,3.964629402
0.34900,,,-3.0783302,2.743851771
0.34950,,,-1.552358162,1.523074141
0.35000,,,0.8891970999,3.049046179
0.35050,,,3.330752362,5.795795848
0.35100,,,3.941141177,7.016573479
0.35150,,,3.025557954,5.795795848
0.35200,,,2.109974731,4.575018218
0.35250,,,2.720363546,5.185407033
0.35300,,,3.941141177,7.016573479
0.35350,,,4.551529992,7.626962295
0.35400,,,3.941141177,7.321767887
0.35450,,,2.415169138,7.932156702
0.35500,,,1.194391508,8.847739925
0.35550,,,-0.0263861232,9.152934333
0.35600,,,-0.9419693463,7.626962295
0.35650,,,-1.857552569,5.490601441
0.35700,,,-2.773135793,4.575018218
0.35750,,,-3.993913423,4.880212625
0.35800,,,-5.519885462,5.185407033
0.35850,,,-6.435468685,4.575018218
0.35900,,,-7.0458575,4.26982381
0.35950,,,-8.266635131,4.880212625
0.36000,,,-9.182218354,5.185407033
0.36050,,,-8.571829539,4.575018218
0.36100,,,-6.435468685,3.964629402
0.36150,,,-4.909496646,4.26982381
0.36200,,,-4.299107831,4.880212625
0.36250,,,-2.467941385,4.575018218
0.36300,,,0.5840026922,3.049046179
0.36350,,,3.330752362,1.828268548
0.36400,,,3.025557954,1.828268548
0.36450,,,1.499585915,2.743851771
0.36500,,,1.194391508,3.659434994
0.36550,,,3.025557954,3.659434994
0.36600,,,4.8567244,3.659434994
0.36650,,,6.077502031,3.964629402
0.36700,,,6.993085254,4.575018218
0.36750,,,7.908668477,4.880212625
0.36800,,,8.213862885,3.964629402
0.36850,,,8.519057292,2.438657364
0.36900,,,7.908668477,2.743851771
0.36950,,,6.687890846,4.880212625
0.37000,,,5.161918808,6.711379072
0.37050,,,3.941141177,5.795795848
0.37100,,,2.720363546,4.26982381
0.37150,,,-0.0263861232,4.575018218
0.37200,,,-4.909496646,4.575018218
0.37250,,,-8.571829539,2.743851771
0.37300,,,-9.182218354,-0.3080923056
0.37350,,,-7.351051908,-0.6132867133
0.37400,,,-5.214691054,1.523074141
0.37450,,,-3.688719016,2.133462956
0.37500,,,-2.773135793,1.217879733
0.37550,,,-2.773135793,1.217879733
0.37600,,,-3.0783302,3.049046179
0.37650,,,-2.773135793,3.964629402
0.37700,,,-1.247163754,3.354240587
0.37750,,,-0.6367749386,2.438657364
0.37800,,,-2.162746977,3.049046179
0.37850,,,-4.299107831,3.659434994
0.37900,,,-4.604302239,2.438657364
0.37950,,,-2.773135793,1.217879733
0.38000,,,-0.9419693463,1.523074141
0.38050,,,-0.3315805309,2.438657364
0.38100,,,0.2788082845,1.828268548
0.38150,,,1.499585915,0.9126853252
0.38200,,,2.415169138,2.133462956
0.38250,,,2.720363546,3.964629402
0.38300,,,2.109974731,4.880212625
0.38350,,,1.804780323,4.575018218
0.38400,,,1.804780323,4.575018218
0.38450,,,2.109974731,3.964629402
0.38500,,,2.720363546,3.354240587
0.38550,,,3.025557954,2.743851771
0.38600,,,2.720363546,3.354240587
0.38650,,,2.415169138,4.26982381
0.38700,,,2.109974731,4.26982381
0.38750,,,2.415169138,3.964629402
0.38800,,,2.109974731,3.964629402
0.38850,,,1.804780323,4.880212625
0.38900,,,1.194391508,4.575018218
0.38950,,,0.8891970999,3.964629402
0.39000,,,1.194391508,3.354240587
0.39050,,,1.804780323,3.354240587
0.39100,,,2.109974731,3.049046179
0.39150,,,1.499585915,2.438657364
0.39200,,,-0.3315805309,2.133462956
0.39250,,,-2.467941385,2.743851771
0.39300,,,-3.0783302,3.354240587
0.39350,,,-2.162746977,3.964629402
0.39400,,,-1.247163754,5.490601441
0.39450,,,-0.6367749386,6.406184664
0.39500,,,-0.9419693463,5.490601441
0.39550,,,-1.247163754,4.26982381
0.39600,,,-1.247163754,4.26982381
0.39650,,,-0.9419693463,4.880212625
0.39700,,,-0.0263861232,4.26982381
0.39750,,,0.5840026922,2.743851771
0.39800,,,-0.0263861232,1.523074141
0.39850,,,-0.9419693463,2.438657364
0.39900,,,-0.6367749386,3.964629402
0.39950,,,-0.0263861232,3.964629402
0.40000,,,-0.0263861232,3.659434994
0.40050,,,-1.247163754,3.659434994
0.40100,,,-0.9419693463,4.26982381
0.40150,,,0.8891970999,5.185407033
0.40200,,,3.330752362,5.185407033
0.40250,,,4.246335585,4.26982381
0.40300,,,3.635946769,3.964629402
0.40350,,,3.330752362,3.964629402
0.40400,,,3.025557954,4.575018218
0.40450,,,1.804780323,4.26982381
0.40500,,,-0.0263861232,3.964629402
0.40550,,,-0.3315805309,3.964629402
0.40600,,,0.2788082845,5.185407033
0.40650,,,0.8891970999,5.795795848
0.40700,,,0.2788082845,4.575018218
0.40750,,,-0.3315805309,3.354240587
0.40800,,,-0.0263861232,3.354240587
0.40850,,,2.109974731,4.26982381
0.40900,,,3.025557954,4.880212625
0.40950,,,1.804780323,4.880212625
0.41000,,,-0.6367749386,4.880212625
0.41050,,,-1.857552569,5.490601441
0.41100,,,-2.162746977,5.490601441
0.41150,,,-1.857552569,4.575018218
0.41200,,,-1.247163754,4.26982381
0.41250,,,-0.0263861232,4.575018218
0.41300,,,0.8891970999,5.185407033
0.41350,,,0.8891970999,4.575018218
0.41400,,,0.2788082845,3.964629402
0.41450,,,0.5840026922,3.354240587
0.41500,,,2.109974731,3.659434994
0.41550,,,3.025557954,4.26982381
0.41600,,,2.720363546,5.185407033
0.41650,,,2.720363546,4.880212625
0.41700,,,3.025557954,4.575018218
0.41750,,,2.109974731,5.185407033
0.41800,,,-0.0263861232,6.406184664
0.41850,,,-0.9419693463,7.321767887
0.41900,,,-0.0263861232,6.711379072
0.41950,,,0.5840026922,6.100990256
0.42000,,,0.2788082845,6.406184664
0.42050,,,-0.0263861232,7.016573479
0.42100,,,1.194391508,7.321767887
0.42150,,,3.330752362,7.321767887
0.42200,,,4.551529992,7.626962295
0.42250,,,4.551529992,7.626962295
0.42300,,,3.941141177,7.321767887
0.42350,,,4.246335585,6.406184664
0.42400,,,4.551529992,5.490601441
0.42450,,,4.8567244,5.185407033
0.42500,,,4.246335585,5.185407033
0.42550,,,3.025557954,5.185407033
0.42600,,,1.499585915,5.490601441
0.42650,,,0.8891970999,6.100990256
0.42700,,,0.8891970999,6.100990256
0.42750,,,-0.6367749386,5.795795848
0.42800,,,-3.993913423,3.964629402
0.42850,,,-7.0458575,0.9126853252
0.42900,,,-7.961440723,-0.918481121
0.42950,,,-6.435468685,-0.6132867133
0.43000,,,-3.993913423,0.6074909175
0.43050,,,-1.247163754,1.523074141
0.43100,,,0.2788082845,2.133462956
0.43150,,,1.194391508,3.354240587
0.43200,,,2.109974731,4.575018218
0.43250,,,3.941141177,4.575018218
0.43300,,,4.551529992,3.049046179
0.43350,,,1.804780323,2.133462956
0.43400,,,-1.552358162,2.743851771
0.43450,,,-2.162746977,3.964629402
0.43500,,,0.2788082845,3.964629402
0.43550,,,1.194391508,3.659434994
0.43600,,,-0.9419693463,3.964629402
0.43650,,,-3.0783302,4.880212625
0.43700,,,-0.9419693463,5.490601441
0.43750,,,1.804780323,5.795795848
0.43800,,,2.109974731,6.100990256
0.43850,,,-0.0263861232,6.100990256
0.43900,,,-1.552358162,5.490601441
0.43950,,,-2.162746977,3.964629402
0.44000,,,-3.0783302,2.133462956
0.44050,,,-4.604302239,1.523074141
0.44100,,,-4.299107831,2.133462956
0.44150,,,-3.0783302,3.049046179
0.44200,,,-3.688719016,3.659434994
0.44250,,,-6.130274277,3.354240587
0.44300,,,-7.656246316,2.743851771
0.44350,,,-7.0458575,1.828268548
0.44400,,,-6.435468685,1.828268548
0.44450,,,-6.740663093,1.828268548
0.44500,,,-6.130274277,2.133462956
0.44550,,,-3.688719016,2.133462956
0.44600,,,-1.247163754,2.133462956
0.44650,,,-0.9419693463,1.828268548
0.44700,,,-2.773135793,1.523074141
0.44750,,,-4.299107831,1.217879733
0.44800,,,-4.299107831,0.9126853252
0.44850,,,-3.383524608,1.217879733
0.44900,,,-1.857552569,2.743851771
0.44950,,,-0.6367749386,4.880212625
0.45000,,,-0.0263861232,6.711379072
0.45050,,,-0.0263861232,5.795795848
0.45100,,,-0.3315805309,3.964629402
0.45150,,,-1.247163754,3.049046179
0.45200,,,-2.467941385,4.26982381
0.45250,,,-3.688719016,5.490601441
0.45300,,,-4.909496646,5.185407033
0.45350,,,-5.519885462,4.26982381
0.45400,,,-5.519885462,4.880212625
0.45450,,,-4.604302239,6.406184664
0.45500,,,-3.0783302,7.016573479
0.45550,,,-1.552358162,5.490601441
0.45600,,,-1.247163754,3.964629402
0.45650,,,-1.247163754,3.964629402
0.45700,,,-0.3315805309,4.26982381
0.45750,,,1.194391508,4.880212625
0.45800,,,3.635946769,4.880212625
0.45850,,,4.8567244,5.185407033
0.45900,,,3.635946769,5.185407033
0.45950,,,1.804780323,5.185407033
0.46000,,,-0.0263861232,5.490601441
0.46050,,,-0.9419693463,5.185407033
0.46100,,,-1.247163754,3.964629402
0.46150,,,-0.9419693463,2.438657364
0.46200,,,-0.0263861232,1.828268548
0.46250,,,0.5840026922,3.049046179
0.46300,,,0.5840026922,3.659434994
0.46350,,,0.8891970999,3.049046179
0.46400,,,1.804780323,2.438657364
0.46450,,,3.330752362,3.659434994
0.46500,,,4.551529992,5.185407033
0.46550,,,4.246335585,6.100990256
0.46600,,,3.025557954,5.490601441
0.46650,,,2.415169138,5.185407033
0.46700,,,3.330752362,6.100990256
0.46750,,,5.161918808,7.321767887
0.46800,,,5.772307623,7.932156702
0.46850,,,5.161918808,7.321767887
0.46900,,,4.8567244,6.711379072
0.46950,,,6.993085254,6.406184664
0.47000,,,9.434640516,6.711379072
0.47050,,,9.739834923,7.016573479
0.47100,,,6.687890846,6.711379072
0.47150,,,3.025557954,6.100990256
0.47200,,,-0.3315805309,5.795795848
0.47250,,,-4.604302239,5.185407033
0.47300,,,-10.40299599,3.659434994
0.47350,,,-14.37052329,1.523074141
0.47400,,,-13.76013447,0.6074909175
0.47450,,,-9.79260717,1.523074141
0.47500,,,-6.740663093,3.354240587
0.47550,,,-5.82507987,4.575018218
0.47600,,,-4.909496646,5.795795848
0.47650,,,-1.552358162,7.626962295
0.47700,,,2.109974731,8.847739925
0.47750,,,3.635946769,8.542545518
0.47800,,,2.109974731,7.016573479
0.47850,,,-0.0263861232,4.880212625
0.47900,,,-0.6367749386,3.354240587
0.47950,,,-0.6367749386,1.523074141
0.48000,,,-1.552358162,0.9126853252
0.48050,,,-2.467941385,1.523074141
0.48100,,,-2.467941385,1.828268548
0.48150,,,-0.9419693463,1.217879733
0.48200,,,-0.3315805309,0.3022965098
0.48250,,,-1.552358162,0.9126853252
0.48300,,,-1.857552569,2.133462956
0.48350,,,-0.0263861232,2.438657364
0.48400,,,1.804780323,2.438657364
0.48450,,,0.8891970999,3.049046179
0.48500,,,-1.552358162,3.964629402
0.48550,,,-1.857552569,3.659434994
0.48600,,,0.8891970999,2.133462956
0.48650,,,3.941141177,2.133462956
0.48700,,,4.551529992,3.964629402
0.48750,,,4.246335585,5.795795848
0.48800,,,5.161918808,5.185407033
0.48850,,,6.382696439,3.964629402
0.48900,,,6.382696439,3.964629402
0.48950,,,5.467113215,3.964629402
0.49000,,,4.8567244,3.354240587
0.49050,,,4.8567244,2.133462956
0.49100,,,4.8567244,2.133462956
0.49150,,,4.551529992,2.743851771
0.49200,,,4.551529992,2.438657364
0.49250,,,4.551529992,1.523074141
0.49300,,,3.941141177,1.217879733
0.49350,,,2.720363546,2.133462956
0.49400,,,2.720363546,2.743851771
0.49450,,,4.246335585,2.438657364
0.49500,,,4.8567244,2.743851771
0.49550,,,2.720363546,2.743851771
0.49600,,,-0.0263861232,1.523074141
0.49650,,,-1.552358162,-0.918481121
0.49700,,,-0.3315805309,-2.139258752
0.49750,,,0.8891970999,-1.223675529
0.49800,,,0.5840026922,0.3022965098
0.49850,,,-0.6367749386,0.9126853252
0.49900,,,-1.552358162,1.523074141
0.49950,,,-0.6367749386,2.743851771
0.50000,,,0.8891970999,3.659434994
0.50050,,,2.720363546,2.438657364
0.50100,,,3.941141177,0.9126853252
0.50150,,,4.551529992,0.9126853252
0.50200,,,4.551529992,2.438657364
0.50250,,,5.467113215,3.659434994
0.50300,,,6.687890846,3.964629402
0.50350,,,6.687890846,3.964629402
0.50400,,,4.246335585,4.26982381
0.50450,,,2.109974731,4.575018218
0.50500,,,1.804780323,4.26982381
0.50550,,,1.804780323,3.659434994
0.50600,,,-0.3315805309,3.659434994
0.50650,,,-4.299107831,3.354240587
0.50700,,,-5.519885462,3.354240587
0.50750,,,-3.0783302,3.659434994
0.50800,,,-0.6367749386,3.964629402
0.50850,,,-0.0263861232,4.575018218
0.50900,,,-0.0263861232,4.575018218
0.50950,,,0.8891970999,4.26982381
0.51000,,,1.499585915,3.964629402
0.51050,,,0.2788082845,3.964629402
0.51100,,,-2.162746977,3.049046179
0.51150,,,-3.688719016,1.523074141
0.51200,,,-3.688719016,0.6074909175
0.51250,,,-2.467941385,1.217879733
0.51300,,,-1.857552569,1.828268548
0.51350,,,-1.552358162,1.523074141
0.51400,,,-0.9419693463,1.523074141
0.51450,,,-0.0263861232,3.049046179
0.51500,,,0.2788082845,5.185407033
0.51550,,,0.2788082845,5.490601441
0.51600,,,-0.0263861232,4.26982381
0.51650,,,0.5840026922,3.964629402
0.51700,,,1.499585915,4.26982381
0.51750,,,2.109974731,5.185407033
0.51800,,,2.415169138,4.880212625
0.51850,,,2.720363546,4.26982381
0.51900,,,3.330752362,4.575018218
0.51950,,,3.635946769,5.795795848
0.52000,,,3.635946769,6.711379072
0.52050,,,3.330752362,7.321767887
0.52100,,,3.025557954,7.321767887
0.52150,,,2.415169138,6.711379072
0.52200,,,1.804780323,5.185407033
0.52250,,,2.109974731,4.26982381
0.52300,,,2.720363546,3.964629402
0.52350,,,1.194391508,3.354240587
0.52400,,,-2.162746977,1.828268548
0.52450,,,-4.909496646,1.217879733
0.52500,,,-4.299107831,2.438657364
0.52550,,,-2.162746977,3.964629402
0.52600,,,-1.247163754,4.26982381
0.52650,,,-2.773135793,3.354240587
0.52700,,,-4.299107831,2.438657364
0.52750,,,-4.604302239,3.049046179
0.52800,,,-4.909496646,3.354240587
0.52850,,,-6.130274277,2.133462956
0.52900,,,-7.0458575,0.3022965098
0.52950,,,-5.82507987,-0.918481121
0.53000,,,-3.383524608,-0.918481121
0.53050,,,-2.162746977,-0.002897897924
0.53100,,,-3.0783302,1.217879733
0.53150,,,-4.909496646,3.049046179
0.53200,,,-5.82507987,4.26982381
0.53250,,,-5.214691054,4.880212625
0.53300,,,-3.383524608,4.880212625
0.53350,,,-2.467941385,5.185407033
0.53400,,,-3.0783302,5.490601441
0.53450,,,-4.604302239,5.490601441
0.53500,,,-5.214691054,5.795795848
0.53550,,,-4.299107831,6.711379072
0.53600,,,-3.0783302,7.016573479
0.53650,,,-1.857552569,6.406184664
0.53700,,,-0.9419693463,5.795795848
0.53750,,,-0.3315805309,6.711379072
0.53800,,,-1.552358162,7.321767887
0.53850,,,-3.688719016,5.795795848
0.53900,,,-5.519885462,3.964629402
0.53950,,,-4.909496646,3.049046179
0.54000,,,-2.162746977,3.964629402
0.54050,,,0.8891970999,4.880212625
0.54100,,,3.025557954,4.575018218
0.54150,,,3.025557954,4.575018218
0.54200,,,1.804780323,5.490601441
0.54250,,,1.194391508,7.016573479
0.54300,,,0.5840026922,7.932156702
0.54350,,,0.8891970999,8.23735111
0.54400,,,1.194391508,8.23735111
0.54450,,,1.499585915,7.932156702
0.54500,,,1.499585915,6.406184664
0.54550,,,0.2788082845,4.575018218
0.54600,,,-2.467941385,3.659434994
0.54650,,,-6.435468685,2.743851771
0.54700,,,-8.571829539,2.133462956
0.54750,,,-7.351051908,2.133462956
0.54800,,,-4.299107831,2.743851771
0.54850,,,-1.552358162,3.659434994
0.54900,,,-0.0263861232,4.26982381
0.54950,,,0.8891970999,4.575018218
0.55000,,,2.415169138,5.185407033
0.55050,,,2.720363546,5.185407033
0.55100,,,1.804780323,4.880212625
0.55150,,,0.8891970999,4.575018218
0.55200,,,0.8891970999,4.880212625
0.55250,,,1.194391508,4.880212625
0.55300,,,0.5840026922,4.575018218
0.55350,,,0.2788082845,5.185407033
0.55400,,,1.194391508,6.100990256
0.55450,,,3.025557954,6.711379072
0.55500,,,3.330752362,6.711379072
0.55550,,,2.415169138,6.406184664
0.55600,,,0.8891970999,6.100990256
0.55650,,,-0.9419693463,4.575018218
0.55700,,,-3.383524608,2.743851771
0.55750,,,-5.82507987,1.828268548
0.55800,,,-6.130274277,3.049046179
0.55850,,,-4.909496646,4.880212625
0.55900,,,-4.299107831,5.185407033
0.55950,,,-4.909496646,4.575018218
0.56000,,,-5.214691054,4.26982381
0.56050,,,-4.604302239,4.575018218
0.56100,,,-3.688719016,4.575018218
0.56150,,,-2.467941385,4.26982381
0.56200,,,-1.552358162,3.964629402
0.56250,,,-1.247163754,3.964629402
0.56300,,,-2.162746977,3.354240587
0.56350,,,-2.773135793,2.133462956
0.56400,,,-1.857552569,1.828268548
0.56450,,,-0.6367749386,3.354240587
0.56500,,,-0.6367749386,4.880212625
0.56550,,,-2.467941385,4.880212625
0.56600,,,-2.773135793,3.964629402
0.56650,,,-1.247163754,3.964629402
0.56700,,,-0.0263861232,4.26982381
0.56750,,,-0.0263861232,4.575018218
0.56800,,,-1.552358162,3.659434994
0.56850,,,-0.9419693463,3.049046179
0.56900,,,0.8891970999,3.354240587
0.56950,,,2.415169138,3.964629402
0.57000,,,2.415169138,4.575018218
0.57050,,,2.109974731,5.185407033
0.57100,,,2.415169138,6.406184664
0.57150,,,3.635946769,7.321767887
0.57200,,,3.941141177,6.711379072
0.57250,,,3.941141177,5.185407033
0.57300,,,4.551529992,5.185407033
0.57350,,,6.077502031,5.490601441
0.57400,,,5.772307623,3.964629402
0.57450,,,3.025557954,1.523074141
0.57500,,,-0.6367749386,-0.3080923056
0.57550,,,-3.383524608,-0.3080923056
0.57600,,,-4.604302239,-0.3080923056
0.57650,,,-6.130274277,-1.528869936
0.57700,,,-7.656246316,-2.44445316
0.57750,,,-7.0458575,-1.223675529
0.57800,,,-3.383524608,1.217879733
0.57850,,,0.2788082845,3.049046179
0.57900,,,1.499585915,3.049046179
0.57950,,,0.5840026922,2.438657364
0.58000,,,0.8891970999,2.438657364
0.58050,,,2.415169138,2.743851771
0.58100,,,2.720363546,3.049046179
0.58150,,,1.194391508,2.743851771
0.58200,,,-0.0263861232,2.438657364
0.58250,,,1.499585915,2.133462956
0.58300,,,4.246335585,2.743851771
0.58350,,,6.382696439,3.049046179
0.58400,,,6.382696439,2.743851771
0.58450,,,5.467113215,2.438657364
0.58500,,,4.551529992,2.743851771
0.58550,,,3.635946769,3.659434994
0.58600,,,2.415169138,3.964629402
0.58650,,,0.2788082845,4.26982381
0.58700,,,-1.247163754,4.880212625
0.58750,,,-1.247163754,6.406184664
0.58800,,,0.2788082845,7.626962295
0.58850,,,0.8891970999,7.626962295
0.58900,,,-1.552358162,6.406184664
0.58950,,,-4.909496646,4.575018218
0.59000,,,-4.909496646,3.964629402
0.59050,,,-1.857552569,3.964629402
0.59100,,,0.8891970999,4.575018218
0.59150,,,1.194391508,4.575018218
0.59200,,,0.8891970999,3.964629402
0.59250,,,1.804780323,3.659434994
0.59300,,,3.025557954,4.880212625
0.59350,,,2.720363546,6.406184664
0.59400,,,1.499585915,6.100990256
0.59450,,,0.5840026922,4.880212625
0.59500,,,1.499585915,4.26982381
0.59550,,,2.415169138,4.575018218
0.59600,,,2.415169138,3.964629402
0.59650,,,1.499585915,3.049046179
0.59700,,,-0.0263861232,2.743851771
0.59750,,,-0.3315805309,3.354240587
0.59800,,,-0.0263861232,3.964629402
0.59850,,,0.8891970999,3.964629402
0.59900,,,2.109974731,4.26982381
0.59950,,,3.330752362,5.185407033
0.60000,,,4.551529992,5.795795848
0.60050,,,5.467113215,4.575018218
0.60100,,,5.772307623,3.659434994
0.60150,,,6.687890846,3.659434994
0.60200,,,6.993085254,3.964629402
0.60250,,,6.077502031,3.964629402
0.60300,,,3.330752362,3.354240587
0.60350,,,1.194391508,3.659434994
0.60400,,,0.2788082845,4.880212625
0.60450,,,-0.0263861232,5.490601441
0.60500,,,-0.0263861232,5.185407033
0.60550,,,-0.0263861232,5.490601441
0.60600,,,0.8891970999,5.795795848
0.60650,,,1.804780323,5.185407033
0.60700,,,2.109974731,4.26982381
0.60750,,,2.109974731,4.26982381
0.60800,,,2.415169138,4.880212625
0.60850,,,2.415169138,5.795795848
0.60900,,,1.499585915,5.795795848
0.60950,,,0.8891970999,5.490601441
0.61000,,,2.109974731,4.575018218
0.61050,,,3.635946769,3.354240587
0.61100,,,3.330752362,1.828268548
0.61150,,,1.804780323,2.133462956
0.61200,,,1.499585915,3.659434994
0.61250,,,3.941141177,3.964629402
0.61300,,,6.687890846,3.659434994
0.61350,,,7.908668477,3.354240587
0.61400,,,7.298279662,3.659434994
0.61450,,,5.772307623,3.659434994
0.61500,,,3.330752362,3.049046179
0.61550,,,0.8891970999,3.659434994
0.61600,,,-0.0263861232,4.575018218
0.61650,,,0.5840026922,4.880212625
0.61700,,,3.025557954,4.26982381
0.61750,,,4.8567244,3.964629402
0.61800,,,4.551529992,3.964629402
0.61850,,,3.330752362,3.964629402
0.61900,,,1.804780323,3.354240587
0.61950,,,0.2788082845,3.049046179
0.62000,,,-0.3315805309,3.049046179
0.62050,,,-0.0263861232,3.049046179
0.62100,,,0.5840026922,2.743851771
0.62150,,,0.2788082845,3.354240587
0.62200,,,-1.857552569,3.964629402
0.62250,,,-4.299107831,3.964629402
0.62300,,,-3.993913423,2.743851771
0.62350,,,-2.162746977,2.438657364
0.62400,,,-0.9419693463,3.964629402
0.62450,,,-0.6367749386,4.575018218
0.62500,,,-0.0263861232,3.964629402
0.62550,,,2.109974731,3.659434994
0.62600,,,3.635946769,4.880212625
0.62650,,,3.635946769,6.100990256
0.62700,,,3.025557954,5.185407033
0.62750,,,2.720363546,3.659434994
0.62800,,,2.720363546,3.659434994
0.62850,,,2.720363546,5.185407033
0.62900,,,3.330752362,5.795795848
0.62950,,,4.551529992,4.880212625
0.63000,,,4.8567244,3.964629402
0.63050,,,4.246335585,4.26982381
0.63100,,,4.246335585,4.575018218
0.63150,,,5.772307623,4.26982381
0.63200,,,6.993085254,3.964629402
0.63250,,,5.467113215,4.26982381
0.63300,,,2.109974731,3.964629402
0.63350,,,-0.9419693463,2.743851771
0.63400,,,-3.993913423,2.133462956
0.63450,,,-6.130274277,3.049046179
0.63500,,,-7.0458575,3.964629402
0.63550,,,-6.130274277,3.354240587
0.63600,,,-4.909496646,2.438657364
0.63650,,,-3.993913423,3.659434994
0.63700,,,-3.688719016,5.185407033
0.63750,,,-3.0783302,6.100990256
0.63800,,,-3.0783302,5.490601441
0.63850,,,-3.0783302,5.795795848
0.63900,,,-2.162746977,7.626962295
0.63950,,,-1.247163754,8.542545518
0.64000,,,-2.162746977,6.711379072
0.64050,,,-3.688719016,3.659434994
0.64100,,,-3.0783302,1.523074141
0.64150,,,-1.552358162,1.217879733
0.64200,,,-2.773135793,1.828268548
0.64250,,,-8.571829539,1.217879733
0.64300,,,-14.9809121,0.3022965098
0.64350,,,-16.50688414,0.3022965098
0.64400,,,-14.06532888,1.828268548
0.64450,,,-11.62377362,2.438657364
0.64500,,,-10.70819039,1.828268548
0.64550,,,-9.182218354,0.6074909175
0.64600,,,-6.740663093,0.9126853252
0.64650,,,-5.214691054,1.217879733
0.64700,,,-4.909496646,1.523074141
0.64750,,,-5.214691054,1.828268548
0.64800,,,-3.993913423,3.659434994
0.64850,,,-2.773135793,4.880212625
0.64900,,,-1.857552569,4.575018218
0.64950,,,-2.162746977,3.354240587
0.65000,,,-2.773135793,2.438657364
0.65050,,,-2.773135793,3.354240587
0.65100,,,-2.162746977,4.26982381
0.65150,,,-1.857552569,3.964629402
0.65200,,,-1.857552569,3.659434994
0.65250,,,-1.857552569,3.964629402
0.65300,,,-1.857552569,5.490601441
0.65350,,,-1.857552569,6.711379072
0.65400,,,-1.552358162,6.711379072
0.65450,,,-0.9419693463,5.490601441
0.65500,,,-0.9419693463,4.880212625
0.65550,,,-1.552358162,5.490601441
0.65600,,,-2.162746977,6.406184664
0.65650,,,-0.9419693463,6.406184664
0.65700,,,1.194391508,4.880212625
0.65750,,,2.720363546,3.659434994
0.65800,,,1.804780323,3.964629402
0.65850,,,0.8891970999,5.795795848
0.65900,,,1.194391508,7.321767887
0.65950,,,0.8891970999,6.711379072
0.66000,,,-0.9419693463,5.795795848
0.66050,,,-3.0783302,5.795795848
0.66100,,,-2.773135793,5.795795848
0.66150,,,-0.6367749386,5.185407033
0.66200,,,0.2788082845,3.964629402
0.66250,,,0.5840026922,3.354240587
0.66300,,,0.5840026922,3.964629402
0.66350,,,-0.0263861232,4.26982381
0.66400,,,-1.247163754,3.964629402
0.66450,,,-2.467941385,3.354240587
0.66500,,,-1.552358162,3.964629402
0.66550,,,0.5840026922,5.795795848
0.66600,,,1.804780323,7.016573479
0.66650,,,1.499585915,6.406184664
0.66700,,,1.499585915,3.964629402
0.66750,,,1.804780323,1.828268548
0.66800,,,0.5840026922,1.217879733
0.66850,,,-1.552358162,1.828268548
0.66900,,,-3.0783302,2.743851771
0.66950,,,-2.773135793,3.049046179
0.67000,,,-2.467941385,3.354240587
0.67050,,,-2.773135793,3.354240587
0.67100,,,-2.467941385,3.354240587
0.67150,,,-1.552358162,3.659434994
0.67200,,,-1.552358162,4.26982381
0.67250,,,-2.773135793,5.490601441
0.67300,,,-3.0783302,5.795795848
0.67350,,,-0.9419693463,4.880212625
0.67400,,,1.499585915,3.964629402
0.67450,,,2.720363546,3.659434994
0.67500,,,2.415169138,3.964629402
0.67550,,,1.499585915,3.964629402
0.67600,,,0.5840026922,4.575018218
0.67650,,,-0.0263861232,5.795795848
0.67700,,,-0.0263861232,7.016573479
0.67750,,,-0.0263861232,6.711379072
0.67800,,,-0.0263861232,5.795795848
0.67850,,,-0.0263861232,5.185407033
0.67900,,,0.2788082845,5.490601441
0.67950,,,-0.0263861232,4.880212625
0.68000,,,-2.162746977,3.049046179
0.68050,,,-5.519885462,1.217879733
0.68100,,,-7.0458575,0.6074909175
0.68150,,,-5.214691054,1.217879733
0.68200,,,-3.688719016,2.133462956
0.68250,,,-3.993913423,2.133462956
0.68300,,,-4.909496646,1.828268548
0.68350,,,-5.214691054,1.828268548
0.68400,,,-4.604302239,3.049046179
0.68450,,,-3.0783302,4.26982381
0.68500,,,-0.3315805309,4.575018218
0.68550,,,2.720363546,4.26982381
0.68600,,,3.941141177,3.964629402
0.68650,,,2.109974731,4.575018218
0.68700,,,0.5840026922,4.880212625
0.68750,,,1.194391508,4.26982381
0.68800,,,2.720363546,3.964629402
0.68850,,,3.635946769,4.880212625
0.68900,,,3.330752362,6.100990256
0.68950,,,3.330752362,5.490601441
0.69000,,,3.635946769,3.964629402
0.69050,,,3.025557954,3.659434994
0.69100,,,2.109974731,3.964629402
0.69150,,,0.8891970999,3.964629402
0.69200,,,-1.247163754,3.049046179
0.69250,,,-4.299107831,1.828268548
0.69300,,,-5.519885462,1.523074141
0.69350,,,-3.383524608,1.523074141
0.69400,,,-0.6367749386,1.523074141
0.69450,,,-0.3315805309,1.828268548
0.69500,,,-1.857552569,2.438657364
0.69550,,,-2.162746977,1.828268548
0.69600,,,-0.3315805309,1.217879733
0.69650,,,0.8891970999,1.217879733
0.69700,,,0.5840026922,2.438657364
0.69750,,,-0.0263861232,3.354240587
0.69800,,,1.194391508,3.049046179
0.69850,,,3.330752362,3.049046179
0.69900,,,3.941141177,3.049046179
0.69950,,,2.415169138,2.743851771
0.70000,,,-0.0263861232,2.133462956
0.70050,,,-0.3315805309,1.828268548
0.70100,,,0.2788082845,2.438657364
0.70150,,,1.804780323,2.743851771
0.70200,,,2.720363546,2.438657364
0.70250,,,3.941141177,3.049046179
0.70300,,,5.161918808,3.964629402
0.70350,,,6.077502031,4.575018218
0.70400,,,5.772307623,4.26982381
0.70450,,,4.551529992,4.575018218
0.70500,,,4.246335585,6.711379072
0.70550,,,4.246335585,7.321767887
0.70600,,,3.330752362,5.490601441
0.70650,,,0.8891970999,3.049046179
0.70700,,,-0.9419693463,2.133462956
0.70750,,,-1.552358162,2.743851771
0.70800,,,-0.3315805309,2.438657364
0.70850,,,0.5840026922,1.828268548
0.70900,,,0.2788082845,2.133462956
0.70950,,,-0.0263861232,2.743851771
0.71000,,,-0.0263861232,2.438657364
0.71050,,,-0.0263861232,2.133462956
0.71100,,,0.8891970999,3.049046179
0.71150,,,2.415169138,3.964629402
0.71200,,,3.941141177,3.964629402
0.71250,,,5.161918808,3.049046179
0.71300,,,5.161918808,3.049046179
0.71350,,,4.551529992,3.354240587
0.71400,,,4.246335585,3.354240587
0.71450,,,5.161918808,3.354240587
0.71500,,,6.382696439,3.964629402
0.71550,,,6.687890846,5.490601441
0.71600,,,5.161918808,6.100990256
0.71650,,,3.330752362,5.795795848
0.71700,,,2.720363546,6.406184664
0.71750,,,3.635946769,7.016573479
0.71800,,,4.551529992,6.100990256
0.71850,,,4.246335585,4.26982381
0.71900,,,4.246335585,4.26982381
0.71950,,,4.246335585,5.490601441
0.72000,,,4.246335585,5.795795848
0.72050,,,2.415169138,5.185407033
0.72100,,,-0.0263861232,4.880212625
0.72150,,,-0.9419693463,5.490601441
0.72200,,,-0.0263861232,5.795795848
0.72250,,,1.804780323,5.185407033
0.72300,,,3.330752362,5.490601441
0.72350,,,3.941141177,6.711379072
0.72400,,,3.330752362,7.016573479
0.72450,,,2.720363546,6.100990256
0.72500,,,2.415169138,4.880212625
0.72550,,,2.415169138,4.575018218
0.72600,,,1.499585915,4.26982381
0.72650,,,-1.552358162,3.964629402
0.72700,,,-4.909496646,3.964629402
0.72750,,,-5.82507987,4.26982381
0.72800,,,-4.299107831,3.659434994
0.72850,,,-2.162746977,2.133462956
0.72900,,,-1.247163754,2.438657364
0.72950,,,-0.6367749386,3.964629402
0.73000,,,-0.0263861232,4.880212625
0.73050,,,-0.0263861232,4.575018218
0.73100,,,-0.3315805309,4.575018218
0.73150,,,-0.9419693463,5.795795848
0.73200,,,-0.6367749386,7.321767887
0.73250,,,-0.6367749386,7.321767887
0.73300,,,-1.247163754,6.100990256
0.73350,,,-1.247163754,5.490601441
0.73400,,,-0.3315805309,5.185407033
0.73450,,,0.5840026922,4.575018218
0.73500,,,1.804780323,4.26982381
0.73550,,,2.720363546,4.575018218
0.73600,,,3.025557954,5.490601441
0.73650,,,1.804780323,5.490601441
0.73700,,,-0.0263861232,4.26982381
0.73750,,,-0.6367749386,3.659434994
0.73800,,,-0.0263861232,3.354240587
0.73850,,,1.804780323,4.26982381
0.73900,,,3.635946769,5.490601441
0.73950,,,5.161918808,6.100990256
0.74000,,,5.161918808,5.490601441
0.74050,,,3.941141177,4.575018218
0.74100,,,1.499585915,3.659434994
0.74150,,,-0.0263861232,2.743851771
0.74200,,,-0.0263861232,2.133462956
0.74250,,,-0.0263861232,2.133462956
0.74300,,,1.499585915,3.354240587
0.74350,,,3.330752362,3.964629402
0.74400,,,4.551529992,3.049046179
0.74450,,,3.330752362,1.523074141
0.74500,,,1.804780323,1.828268548
0.74550,,,1.804780323,3.354240587
0.74600,,,3.025557954,3.964629402
0.74650,,,2.720363546,3.659434994
0.74700,,,-0.6367749386,1.828268548
0.74750,,,-4.909496646,0.6074909175
0.74800,,,-7.0458575,-0.002897897924
0.74850,,,-7.0458575,0.9126853252
0.74900,,,-5.82507987,2.438657364
0.74950,,,-3.993913423,3.659434994
0.75000,,,-2.162746977,3.659434994
0.75050,,,-0.9419693463,3.354240587
0.75100,,,-0.9419693463,3.049046179
0.75150,,,-1.552358162,3.659434994
0.75200,,,-1.247163754,3.964629402
0.75250,,,0.2788082845,3.659434994
0.75300,,,2.720363546,3.659434994
0.75350,,,3.330752362,3.964629402
0.75400,,,0.8891970999,4.575018218
0.75450,,,-1.552358162,5.490601441
0.75500,,,-0.6367749386,5.795795848
0.75550,,,3.025557954,5.185407033
0.75600,,,5.467113215,4.575018218
0.75650,,,4.246335585,5.185407033
0.75700,,,2.415169138,6.711379072
0.75750,,,1.804780323,7.321767887
0.75800,,,1.194391508,5.490601441
0.75850,,,-1.247163754,3.964629402
0.75900,,,-4.909496646,3.049046179
0.75950,,,-7.0458575,3.049046179
0.76000,,,-7.0458575,2.438657364
0.76050,,,-6.130274277,1.828268548
0.76100,,,-4.909496646,2.438657364
0.76150,,,-2.773135793,3.659434994
0.76200,,,-0.6367749386,3.659434994
0.76250,,,-0.3315805309,2.133462956
0.76300,,,-1.247163754,0.9126853252
0.76350,,,-1.857552569,1.217879733
0.76400,,,-2.773135793,1.523074141
0.76450,,,-4.604302239,0.6074909175
0.76500,,,-6.740663093,-0.6132867133
0.76550,,,-7.961440723,-0.918481121
0.76600,,,-8.266635131,-0.002897897924
0.76650,,,-7.961440723,1.217879733
0.76700,,,-6.130274277,2.133462956
0.76750,,,-3.0783302,3.354240587
0.76800,,,-0.3315805309,4.26982381
0.76850,,,0.5840026922,5.185407033
0.76900,,,0.8891970999,5.795795848
0.76950,,,0.5840026922,6.100990256
0.77000,,,-0.0263861232,5.795795848
0.77050,,,-1.857552569,5.185407033
0.77100,,,-2.773135793,5.795795848
0.77150,,,-1.247163754,7.321767887
0.77200,,,0.8891970999,7.626962295
0.77250,,,1.194391508,6.711379072
0.77300,,,-0.0263861232,5.795795848
0.77350,,,-1.857552569,6.406184664
0.77400,,,-3.383524608,7.016573479
0.77450,,,-4.604302239,6.406184664
0.77500,,,-6.130274277,4.26982381
0.77550,,,-6.130274277,2.743851771
0.77600,,,-4.909496646,2.743851771
0.77650,,,-3.383524608,3.964629402
0.77700,,,-3.0783302,4.575018218
0.77750,,,-3.688719016,4.880212625
0.77800,,,-4.299107831,4.26982381
0.77850,,,-4.604302239,3.659434994
0.77900,,,-4.909496646,2.438657364
0.77950,,,-5.214691054,1.828268548
0.78000,,,-5.214691054,2.438657364
0.78050,,,-5.214691054,3.964629402
0.78100,,,-4.299107831,5.185407033
0.78150,,,-2.773135793,5.185407033
0.78200,,,-1.247163754,4.26982381
0.78250,,,-0.0263861232,3.964629402
0.78300,,,0.2788082845,3.659434994
0.78350,,,-0.0263861232,3.964629402
0.78400,,,-0.6367749386,3.964629402
0.78450,,,-0.9419693463,3.354240587
0.78500,,,-0.0263861232,2.743851771
0.78550,,,1.194391508,2.133462956
0.78600,,,2.415169138,2.438657364
0.78650,,,3.025557954,3.964629402
0.78700,,,4.551529992,5.795795848
0.78750,,,6.382696439,6.406184664
0.78800,,,7.298279662,6.100990256
0.78850,,,6.687890846,5.795795848
0.78900,,,6.382696439,5.795795848
0.78950,,,7.298279662,5.795795848
0.79000,,,7.908668477,5.490601441
0.79050,,,6.993085254,6.100990256
0.79100,,,4.8567244,7.321767887
0.79150,,,3.330752362,7.932156702
0.79200,,,2.415169138,6.711379072
0.79250,,,1.804780323,4.575018218
0.79300,,,0.8891970999,3.964629402
0.79350,,,-0.0263861232,5.185407033
0.79400,,,-1.552358162,6.100990256
0.79450,,,-2.773135793,5.795795848
0.79500,,,-2.162746977,4.575018218
0.79550,,,-0.0263861232,3.964629402
0.79600,,,1.804780323,3.964629402
0.79650,,,1.804780323,4.26982381
0.79700,,,0.2788082845,3.964629402
0.79750,,,-0.3315805309,3.354240587
0.79800,,,-0.0263861232,3.049046179
0.79850,,,-0.0263861232,3.659434994
0.79900,,,-0.0263861232,4.26982381
0.79950,,,-0.3315805309,3.964629402
0.80000,,,-0.6367749386,3.049046179
0.80050,,,-1.552358162,2.133462956
0.80100,,,-1.857552569,2.743851771
0.80150,,,-0.6367749386,3.659434994
0.80200,,,1.499585915,3.964629402
0.80250,,,3.025557954,3.964629402
0.80300,,,3.635946769,4.26982381
0.80350,,,3.941141177,4.880212625
0.80400,,,5.161918808,5.490601441
0.80450,,,6.382696439,5.795795848
0.80500,,,6.077502031,6.406184664
0.80550,,,4.246335585,6.711379072
0.80600,,,1.499585915,5.490601441
0.80650,,,-0.6367749386,3.964629402
0.80700,,,-2.773135793,3.354240587
0.80750,,,-3.0783302,3.964629402
0.80800,,,-1.857552569,3.964629402
0.80850,,,-0.0263861232,3.964629402
0.80900,,,1.499585915,3.659434994
0.80950,,,1.804780323,4.26982381
0.81000,,,0.8891970999,4.575018218
0.81050,,,-0.3315805309,3.659434994
0.81100,,,-2.467941385,1.523074141
0.81150,,,-3.383524608,0.6074909175
0.81200,,,-2.773135793,1.217879733
0.81250,,,-0.6367749386,2.133462956
0.81300,,,0.5840026922,2.438657364
0.81350,,,1.194391508,2.438657364
0.81400,,,1.499585915,2.438657364
0.81450,,,1.804780323,2.743851771
0.81500,,,3.025557954,3.354240587
0.81550,,,4.246335585,4.26982381
0.81600,,,5.161918808,4.880212625
0.81650,,,6.382696439,4.880212625
0.81700,,,7.298279662,4.26982381
0.81750,,,7.603474069,4.575018218
0.81800,,,6.687890846,5.185407033
0.81850,,,4.8567244,4.880212625
0.81900,,,2.720363546,3.964629402
0.81950,,,0.8891970999,3.964629402
0.82000,,,-0.0263861232,4.575018218
0.82050,,,-0.0263861232,5.490601441
0.82100,,,0.5840026922,5.795795848
0.82150,,,2.415169138,6.406184664
0.82200,,,3.941141177,7.016573479
0.82250,,,3.330752362,6.406184664
0.82300,,,0.8891970999,4.26982381
0.82350,,,-1.247163754,2.438657364
0.82400,,,-3.383524608,1.523074141
0.82450,,,-6.130274277,0.9126853252
0.82500,,,-9.79260717,-0.6132867133
0.82550,,,-12.53935684,-0.918481121
0.82600,,,-12.53935684,0.6074909175
0.82650,,,-9.79260717,2.438657364
0.82700,,,-7.351051908,3.049046179
0.82750,,,-6.740663093,3.049046179
0.82800,,,-6.130274277,3.049046179
0.82850,,,-4.299107831,3.049046179
0.82900,,,-1.857552569,2.438657364
0.82950,,,-0.9419693463,1.523074141
0.83000,,,-2.773135793,1.828268548
0.83050,,,-4.909496646,3.049046179
0.83100,,,-5.214691054,3.049046179
0.83150,,,-3.688719016,1.828268548
0.83200,,,-2.467941385,1.217879733
0.83250,,,-3.383524608,1.828268548
0.83300,,,-5.214691054,2.438657364
0.83350,,,-4.604302239,1.523074141
0.83400,,,-1.552358162,0.9126853252
0.83450,,,0.5840026922,1.523074141
0.83500,,,0.5840026922,2.743851771
0.83550,,,-0.3315805309,2.743851771
0.83600,,,-0.3315805309,2.133462956
0.83650,,,0.5840026922,2.438657364
0.83700,,,1.804780323,3.354240587
0.83750,,,1.804780323,3.964629402
0.83800,,,1.499585915,3.964629402
0.83850,,,1.804780323,4.26982381
0.83900,,,2.415169138,5.185407033
0.83950,,,3.941141177,5.795795848
0.84000,,,4.8567244,5.795795848
0.84050,,,5.161918808,4.880212625
0.84100,,,4.551529992,3.964629402
0.84150,,,3.025557954,3.049046179
0.84200,,,1.194391508,2.743851771
0.84250,,,-0.0263861232,3.049046179
0.84300,,,-1.247163754,3.659434994
0.84350,,,-0.9419693463,3.659434994
0.84400,,,-0.0263861232,3.049046179
0.84450,,,-0.0263861232,1.828268548
0.84500,,,-1.857552569,1.217879733
0.84550,,,-3.688719016,1.217879733
0.84600,,,-3.993913423,1.217879733
0.84650,,,-3.383524608,1.217879733
0.84700,,,-2.773135793,1.523074141
0.84750,,,-2.162746977,1.828268548
0.84800,,,-0.6367749386,2.743851771
0.84850,,,1.194391508,3.354240587
0.84900,,,3.025557954,3.659434994
0.84950,,,3.941141177,3.659434994
0.85000,,,4.246335585,3.354240587
0.85050,,,3.330752362,3.659434994
0.85100,,,2.109974731,3.964629402
0.85150,,,2.415169138,3.964629402
0.85200,,,4.246335585,3.354240587
0.85250,,,5.467113215,2.438657364
0.85300,,,5.161918808,3.049046179
0.85350,,,3.941141177,4.26982381
0.85400,,,3.025557954,5.185407033
0.85450,,,0.8891970999,3.964629402
0.85500,,,-1.552358162,1.523074141
0.85550,,,-3.383524608,0.3022965098
0.85600,,,-2.467941385,1.217879733
0.85650,,,-0.3315805309,3.354240587
0.85700,,,-0.3315805309,3.964629402
0.85750,,,-1.857552569,3.964629402
0.85800,,,-1.857552569,3.964629402
0.85850,,,-0.0263861232,5.185407033
0.85900,,,0.8891970999,6.711379072
0.85950,,,-0.0263861232,6.711379072
0.86000,,,-1.247163754,5.795795848
0.86050,,,-1.552358162,4.575018218
0.86100,,,-1.247163754,3.964629402
0.86150,,,-1.247163754,3.659434994
0.86200,,,-1.247163754,3.659434994
0.86250,,,-0.0263861232,3.964629402
0.86300,,,2.109974731,5.185407033
0.86350,,,3.941141177,5.795795848
0.86400,,,4.246335585,5.795795848
0.86450,,,3.025557954,5.185407033
0.86500,,,0.5840026922,4.880212625
0.86550,,,-0.9419693463,5.185407033
0.86600,,,-0.6367749386,5.185407033
0.86650,,,0.5840026922,4.26982381
0.86700,,,1.194391508,3.659434994
0.86750,,,-0.0263861232,3.354240587
0.86800,,,-2.162746977,3.964629402
0.86850,,,-3.0783302,4.880212625
0.86900,,,-2.773135793,4.880212625
0.86950,,,-2.162746977,4.575018218
0.87000,,,-1.552358162,4.880212625
0.87050,,,-1.552358162,6.100990256
0.87100,,,-2.162746977,6.406184664
0.87150,,,-1.552358162,5.795795848
0.87200,,,0.2788082845,4.575018218
0.87250,,,2.415169138,3.964629402
0.87300,,,2.720363546,3.964629402
0.87350,,,2.415169138,4.26982381
0.87400,,,3.025557954,4.575018218
0.87450,,,4.551529992,4.880212625
0.87500,,,4.246335585,4.575018218
0.87550,,,1.499585915,4.26982381
0.87600,,,0.2788082845,4.880212625
0.87650,,,2.109974731,6.100990256
0.87700,,,3.941141177,6.711379072
0.87750,,,2.415169138,6.100990256
0.87800,,,-0.6367749386,5.795795848
0.87850,,,-2.162746977,5.795795848
0.87900,,,-0.3315805309,5.490601441
0.87950,,,2.415169138,4.26982381
0.88000,,,4.246335585,3.964629402
0.88050,,,4.8567244,4.26982381
0.88100,,,5.161918808,4.880212625
0.88150,,,4.8567244,4.575018218
0.88200,,,4.246335585,3.964629402
0.88250,,,3.025557954,3.964629402
0.88300,,,1.499585915,3.964629402
0.88350,,,-0.0263861232,3.964629402
0.88400,,,-1.247163754,3.049046179
0.88450,,,-2.162746977,3.049046179
0.88500,,,-2.162746977,3.659434994
0.88550,,,-2.467941385,3.964629402
0.88600,,,-3.688719016,3.964629402
0.88650,,,-7.0458575,3.964629402
0.88700,,,-11.31857921,4.26982381
0.88750,,,-13.76013447,3.659434994
0.88800,,,-12.84455125,2.743851771
0.88850,,,-10.09780158,3.659434994
0.88900,,,-8.266635131,5.490601441
0.88950,,,-7.0458575,6.711379072
0.89000,,,-4.604302239,5.795795848
0.89050,,,-0.9419693463,4.880212625
0.89100,,,0.5840026922,5.185407033
0.89150,,,-0.0263861232,5.795795848
0.89200,,,-1.552358162,5.185407033
0.89250,,,-0.9419693463,4.26982381
0.89300,,,-0.0263861232,4.26982381
0.89350,,,-2.162746977,4.575018218
0.89400,,,-7.0458575,3.964629402
0.89450,,,-10.70819039,3.354240587
0.89500,,,-11.0133848,3.354240587
0.89550,,,-8.571829539,3.964629402
0.89600,,,-5.214691054,4.575018218
0.89650,,,-0.9419693463,4.880212625
0.89700,,,3.025557954,5.490601441
0.89750,,,6.077502031,5.795795848
0.89800,,,7.908668477,4.880212625
0.89850,,,8.8242517,3.659434994
0.89900,,,8.8242517,3.354240587
0.89950,,,7.908668477,3.964629402
0.90000,,,6.687890846,4.575018218
0.90050,,,5.772307623,4.26982381
0.90100,,,4.551529992,3.964629402
0.90150,,,1.804780323,4.26982381
0.90200,,,-1.552358162,4.26982381
0.90250,,,-4.604302239,3.964629402
0.90300,,,-5.214691054,3.659434994
0.90350,,,-4.299107831,3.964629402
0.90400,,,-3.0783302,4.575018218
0.90450,,,-2.162746977,4.880212625
0.90500,,,-0.6367749386,5.795795848
0.90550,,,1.194391508,6.711379072
0.90600,,,2.720363546,7.321767887
0.90650,,,1.804780323,6.100990256
0.90700,,,-0.0263861232,4.575018218
0.90750,,,-1.552358162,4.575018218
0.90800,,,-1.552358162,5.185407033
0.90850,,,-1.247163754,5.185407033
0.90900,,,-1.857552569,4.880212625
0.90950,,,-2.773135793,6.100990256
0.91000,,,-2.467941385,6.711379072
0.91050,,,-2.162746977,5.795795848
0.91100,,,-3.0783302,3.659434994
0.91150,,,-4.909496646,2.743851771
0.91200,,,-5.519885462,3.354240587
0.91250,,,-4.299107831,3.049046179
0.91300,,,-2.162746977,2.438657364
0.91350,,,-0.6367749386,2.743851771
0.91400,,,-0.0263861232,3.659434994
0.91450,,,-0.6367749386,3.354240587
0.91500,,,-2.467941385,2.133462956
0.91550,,,-3.688719016,2.133462956
0.91600,,,-2.467941385,3.659434994
0.91650,,,-0.0263861232,4.26982381
0.91700,,,1.194391508,3.354240587
0.91750,,,2.109974731,2.743851771
0.91800,,,3.941141177,3.964629402
0.91850,,,6.077502031,5.490601441
0.91900,,,6.382696439,4.880212625
0.91950,,,5.467113215,3.964629402
0.92000,,,5.161918808,4.575018218
0.92050,,,6.687890846,6.100990256
0.92100,,,7.603474069,6.711379072
0.92150,,,6.687890846,5.795795848
0.92200,,,4.551529992,5.490601441
0.92250,,,3.941141177,5.795795848
0.92300,,,5.161918808,5.185407033
0.92350,,,6.993085254,3.964629402
0.92400,,,8.519057292,3.964629402
0.92450,,,9.129446108,4.880212625
0.92500,,,8.8242517,5.490601441
0.92550,,,7.298279662,4.880212625
0.92600,,,5.467113215,3.964629402
0.92650,,,2.720363546,3.049046179
0.92700,,,-0.0263861232,2.133462956
0.92750,,,-0.9419693463,0.6074909175
0.92800,,,-0.0263861232,-0.3080923056
0.92850,,,2.109974731,-0.002897897924
0.92900,,,3.330752362,0.9126853252
0.92950,,,3.635946769,1.217879733
0.93000,,,3.635946769,0.9126853252
0.93050,,,3.025557954,0.3022965098
0.93100,,,0.8891970999,-0.002897897924
0.93150,,,-1.857552569,-0.002897897924
0.93200,,,-3.688719016,0.3022965098
0.93250,,,-3.383524608,0.6074909175
0.93300,,,-3.0783302,0.6074909175
0.93350,,,-3.688719016,0.3022965098
0.93400,,,-4.604302239,-0.3080923056
0.93450,,,-3.383524608,-0.6132867133
0.93500,,,-0.3315805309,0.3022965098
0.93550,,,1.499585915,2.133462956
0.93600,,,1.804780323,3.964629402
0.93650,,,0.8891970999,5.185407033
0.93700,,,1.194391508,5.490601441
0.93750,,,2.415169138,5.185407033
0.93800,,,3.635946769,4.880212625
0.93850,,,3.330752362,4.575018218
0.93900,,,1.194391508,4.575018218
0.93950,,,-0.0263861232,4.575018218
0.94000,,,-0.0263861232,4.575018218
0.94050,,,2.415169138,4.575018218
0.94100,,,4.8567244,4.575018218
0.94150,,,5.161918808,4.880212625
0.94200,,,3.635946769,5.490601441
0.94250,,,1.804780323,6.100990256
0.94300,,,0.2788082845,6.406184664
0.94350,,,-0.9419693463,6.100990256
0.94400,,,-2.162746977,5.185407033
0.94450,,,-2.162746977,3.049046179
0.94500,,,-1.552358162,0.9126853252
0.94550,,,-1.552358162,0.9126853252
0.94600,,,-2.467941385,2.438657364
0.94650,,,-3.383524608,3.659434994
0.94700,,,-2.467941385,3.354240587
0.94750,,,-0.9419693463,2.743851771
0.94800,,,-0.3315805309,2.743851771
0.94850,,,-0.6367749386,3.049046179
0.94900,,,-0.9419693463,3.049046179
0.94950,,,-0.9419693463,2.743851771
0.95000,,,-1.247163754,3.354240587
0.95050,,,-1.552358162,3.354240587
0.95100,,,-1.247163754,2.743851771
0.95150,,,-0.3315805309,2.133462956
0.95200,,,0.2788082845,2.743851771
0.95250,,,0.2788082845,3.964629402
0.95300,,,-0.3315805309,4.880212625
0.95350,,,-2.467941385,4.575018218
0.95400,,,-3.993913423,4.575018218
0.95450,,,-3.383524608,5.795795848
0.95500,,,-1.247163754,6.711379072
0.95550,,,-0.0263861232,6.711379072
0.95600,,,-0.0263861232,5.795795848
0.95650,,,-0.3315805309,5.490601441
0.95700,,,0.2788082845,5.490601441
0.95750,,,0.8891970999,5.795795848
0.95800,,,0.2788082845,5.490601441
0.95850,,,-0.3315805309,5.795795848
0.95900,,,-0.3315805309,7.016573479
0.95950,,,0.5840026922,7.932156702
0.96000,,,1.194391508,7.626962295
0.96050,,,1.499585915,6.406184664
0.96100,,,1.804780323,5.490601441
0.96150,,,1.804780323,5.795795848
0.96200,,,1.499585915,5.795795848
0.96250,,,1.499585915,5.185407033
0.96300,,,1.804780323,4.26982381
0.96350,,,0.8891970999,4.575018218
0.96400,,,-0.9419693463,5.490601441
0.96450,,,-2.467941385,5.490601441
0.96500,,,-1.247163754,3.964629402
0.96550,,,0.2788082845,3.354240587
0.96600,,,0.8891970999,3.964629402
0.96650,,,0.2788082845,4.26982381
0.96700,,,-0.0263861232,3.964629402
0.96750,,,-0.0263861232,3.049046179
0.96800,,,-0.6367749386,2.438657364
0.96850,,,-1.247163754,3.049046179
0.96900,,,-0.0263861232,4.575018218
0.96950,,,2.415169138,6.100990256
0.97000,,,3.025557954,7.016573479
0.97050,,,0.5840026922,7.626962295
0.97100,,,-1.552358162,7.932156702
0.97150,,,-1.857552569,7.626962295
0.97200,,,-0.9419693463,6.406184664
0.97250,,,-0.3315805309,4.575018218
0.97300,,,-0.0263861232,3.354240587
0.97350,,,1.499585915,3.354240587
0.97400,,,3.330752362,3.964629402
0.97450,,,3.635946769,3.964629402
0.97500,,,2.109974731,3.659434994
0.97550,,,-0.6367749386,1.828268548
0.97600,,,-3.0783302,0.3022965098
0.97650,,,-4.909496646,-0.002897897924
0.97700,,,-6.130274277,1.217879733
0.97750,,,-7.351051908,2.743851771
0.97800,,,-7.656246316,2.743851771
0.97850,,,-6.130274277,2.133462956
0.97900,,,-3.993913423,2.438657364
0.97950,,,-2.773135793,3.659434994
0.98000,,,-3.383524608,3.354240587
0.98050,,,-4.299107831,1.828268548
0.98100,,,-4.604302239,0.6074909175
0.98150,,,-5.82507987,1.523074141
0.98200,,,-8.266635131,2.438657364
0.98250,,,-8.877023947,2.743851771
0.98300,,,-6.130274277,1.828268548
0.98350,,,-2.773135793,1.217879733
0.98400,,,-1.857552569,1.523074141
0.98450,,,-3.383524608,2.133462956
0.98500,,,-4.299107831,2.438657364
0.98550,,,-3.383524608,2.743851771
0.98600,,,-2.162746977,3.049046179
0.98650,,,-1.857552569,3.964629402
0.98700,,,-1.247163754,4.880212625
0.98750,,,-0.6367749386,4.575018218
0.98800,,,-1.857552569,3.659434994
0.98850,,,-3.0783302,2.743851771
0.98900,,,-2.162746977,3.964629402
0.98950,,,0.8891970999,5.490601441
0.99000,,,3.330752362,6.100990256
0.99050,,,2.720363546,5.795795848
0.99100,,,1.804780323,6.100990256
0.99150,,,3.025557954,7.016573479
0.99200,,,4.8567244,7.016573479
0.99250,,,4.246335585,5.490601441
0.99300,,,2.415169138,3.964629402
0.99350,,,1.804780323,3.964629402
0.99400,,,3.025557954,4.575018218
0.99450,,,4.246335585,5.185407033
0.99500,,,4.8567244,5.185407033
0.99550,,,4.551529992,4.575018218
0.99600,,,3.025557954,3.964629402
0.99650,,,0.5840026922,3.659434994
0.99700,,,-1.552358162,3.354240587
0.99750,,,-1.857552569,3.659434994
0.99800,,,-1.247163754,3.964629402
0.99850,,,-0.9419693463,3.659434994
0.99900,,,-1.247163754,2.743851771
0.99950,,,-1.247163754,2.133462956
1.00000,,,-0.0263861232,1.828268548
1.00050,,,0.8891970999,1.828268548
1.00100,,,1.194391508,1.828268548
1.00150,,,1.499585915,2.438657364
1.00200,,,2.109974731,3.049046179
1.00250,,,3.025557954,3.964629402
1.00300,,,3.635946769,5.490601441
1.00350,,,3.025557954,7.321767887
1.00400,,,1.499585915,7.932156702
1.00450,,,-0.0263861232,6.100990256
1.00500,,,-0.0263861232,3.964629402
1.00550,,,-0.0263861232,2.438657364
1.00600,,,0.5840026922,2.743851771
1.00650,,,1.194391508,3.354240587
1.00700,,,1.804780323,3.659434994
1.00750,,,2.109974731,3.049046179
1.00800,,,0.8891970999,2.743851771
1.00850,,,-0.6367749386,2.743851771
1.00900,,,-1.247163754,4.26982381
1.00950,,,0.5840026922,6.711379072
1.01000,,,3.635946769,8.847739925
1.01050,,,3.635946769,9.152934333
1.01100,,,0.5840026922,7.321767887
1.01150,,,-2.162746977,5.185407033
1.01200,,,-3.0783302,3.659434994
1.01250,,,-2.162746977,2.743851771
1.01300,,,-1.857552569,2.743851771
1.01350,,,-2.467941385,3.659434994
1.01400,,,-1.857552569,4.880212625
1.01450,,,-0.0263861232,5.490601441
1.01500,,,1.499585915,4.575018218
1.01550,,,0.5840026922,3.354240587
1.01600,,,-1.552358162,2.438657364
1.01650,,,-3.383524608,1.828268548
1.01700,,,-3.0783302,0.6074909175
1.01750,,,-2.162746977,-0.6132867133
1.01800,,,-1.552358162,-0.6132867133
1.01850,,,-0.9419693463,-0.002897897924
1.01900,,,-0.3315805309,0.3022965098
1.01950,,,-0.0263861232,-0.002897897924
1.02000,,,-1.247163754,-0.002897897924
1.02050,,,-2.773135793,0.9126853252
1.02100,,,-3.0783302,2.438657364
1.02150,,,-1.247163754,2.438657364
1.02200,,,1.194391508,2.438657364
1.02250,,,3.330752362,3.049046179
1.02300,,,5.467113215,3.964629402
1.02350,,,7.908668477,3.964629402
1.02400,,,9.129446108,3.354240587
1.02450,,,8.8242517,3.659434994
1.02500,,,6.993085254,5.490601441
1.02550,,,5.161918808,7.016573479
1.02600,,,3.635946769,6.100990256
1.02650,,,1.804780323,4.575018218
1.02700,,,-0.0263861232,3.964629402
1.02750,,,-1.552358162,4.575018218
1.02800,,,-2.773135793,3.964629402
1.02850,,,-3.0783302,2.438657364
1.02900,,,-2.467941385,0.9126853252
1.02950,,,-0.9419693463,0.6074909175
1.03000,,,0.8891970999,1.217879733
1.03050,,,2.720363546,2.743851771
1.03100,,,2.720363546,4.26982381
1.03150,,,1.194391508,5.185407033
1.03200,,,0.5840026922,4.26982381
1.03250,,,1.194391508,3.964629402
1.03300,,,2.415169138,4.575018218
1.03350,,,2.415169138,6.100990256
1.03400,,,2.415169138,5.795795848
1.03450,,,3.330752362,4.575018218
1.03500,,,4.8567244,4.26982381
1.03550,,,4.8567244,4.880212625
1.03600,,,3.635946769,5.490601441
1.03650,,,2.720363546,5.795795848
1.03700,,,2.720363546,7.016573479
1.03750,,,2.720363546,8.23735111
1.03800,,,2.415169138,8.542545518
1.03850,,,2.720363546,7.932156702
1.03900,,,4.551529992,7.626962295
1.03950,,,6.993085254,7.932156702
1.04000,,,7.908668477,8.23735111
1.04050,,,6.993085254,7.321767887
1.04100,,,4.551529992,6.406184664
1.04150,,,1.804780323,5.795795848
1.04200,,,-0.0263861232,5.185407033
1.04250,,,-0.6367749386,4.26982381
1.04300,,,-1.247163754,3.964629402
1.04350,,,-3.383524608,3.964629402
1.04400,,,-5.214691054,3.964629402
1.04450,,,-4.909496646,4.26982381
1.04500,,,-2.773135793,4.26982381
1.04550,,,-3.383524608,4.26982381
1.04600,,,-8.266635131,3.659434994
1.04650,,,-13.45494006,2.438657364
1.04700,,,-12.84455125,1.523074141
1.04750,,,-7.961440723,1.523074141
1.04800,,,-3.688719016,2.743851771
1.04850,,,-3.0783302,3.354240587
1.04900,,,-3.993913423,3.964629402
1.04950,,,-3.0783302,3.964629402
1.05000,,,-1.247163754,3.964629402
1.05050,,,-0.0263861232,3.964629402
1.05100,,,0.8891970999,4.575018218
1.05150,,,1.499585915,4.880212625
1.05200,,,2.415169138,4.575018218
1.05250,,,2.720363546,3.964629402
1.05300,,,2.415169138,4.575018218
1.05350,,,1.804780323,5.795795848
1.05400,,,0.5840026922,7.016573479
1.05450,,,-0.0263861232,7.016573479
1.05500,,,-0.0263861232,6.100990256
1.05550,,,0.5840026922,4.880212625
1.05600,,,0.2788082845,3.964629402
1.05650,,,-1.552358162,3.354240587
1.05700,,,-3.688719016,3.049046179
1.05750,,,-4.299107831,3.354240587
1.05800,,,-3.0783302,3.659434994
1.05850,,,-1.857552569,3.659434994
1.05900,,,-1.552358162,3.964629402
1.05950,,,-0.9419693463,3.964629402
1.06000,,,-0.6367749386,4.26982381
1.06050,,,-1.857552569,3.964629402
1.06100,,,-4.604302239,3.659434994
1.06150,,,-6.435468685,3.049046179
1.06200,,,-6.130274277,2.438657364
1.06250,,,-3.383524608,1.523074141
1.06300,,,-0.6367749386,1.217879733
1.06350,,,0.2788082845,2.133462956
1.06400,,,0.5840026922,3.354240587
1.06450,,,-0.0263861232,3.354240587
1.06500,,,-0.3315805309,1.828268548
1.06550,,,-0.3315805309,0.6074909175
1.06600,,,-0.0263861232,1.523074141
1.06650,,,-0.0263861232,3.354240587
1.06700,,,-0.6367749386,3.659434994
1.06750,,,-1.247163754,3.049046179
1.06800,,,-2.162746977,2.133462956
1.06850,,,-3.0783302,2.133462956
1.06900,,,-3.383524608,2.438657364
1.06950,,,-2.467941385,3.049046179
1.07000,,,-1.247163754,4.26982381
1.07050,,,-1.857552569,5.795795848
1.07100,,,-3.688719016,6.100990256
1.07150,,,-5.82507987,4.575018218
1.07200,,,-6.740663093,3.659434994
1.07250,,,-7.961440723,3.354240587
1.07300,,,-8.571829539,3.354240587
1.07350,,,-7.351051908,3.049046179
1.07400,,,-3.688719016,3.049046179
1.07450,,,-0.9419693463,3.659434994
1.07500,,,-0.6367749386,3.964629402
1.07550,,,-1.552358162,3.964629402
1.07600,,,-1.247163754,4.26982381
1.07650,,,-0.6367749386,5.795795848
1.07700,,,-1.857552569,6.406184664
1.07750,,,-4.299107831,5.490601441
1.07800,,,-4.299107831,3.964629402
1.07850,,,-0.9419693463,3.964629402
1.07900,,,2.720363546,3.964629402
1.07950,,,4.551529992,3.659434994
1.08000,,,4.551529992,3.049046179
1.08050,,,4.246335585,3.659434994
1.08100,,,3.941141177,4.880212625
1.08150,,,2.415169138,5.795795848
1.08200,,,-0.0263861232,5.185407033
1.08250,,,-2.467941385,3.964629402
1.08300,,,-4.909496646,3.354240587
1.08350,,,-5.214691054,3.049046179
1.08400,,,-4.299107831,3.049046179
1.08450,,,-3.688719016,3.049046179
1.08500,,,-3.993913423,3.354240587
1.08550,,,-5.214691054,3.659434994
1.08600,,,-5.214691054,3.964629402
1.08650,,,-3.993913423,3.964629402
1.08700,,,-3.993913423,3.964629402
1.08750,,,-5.519885462,3.964629402
1.08800,,,-5.519885462,3.964629402
1.08850,,,-2.467941385,3.964629402
1.08900,,,1.499585915,3.659434994
1.08950,,,3.941141177,3.354240587
1.09000,,,3.941141177,3.049046179
1.09050,,,3.635946769,3.049046179
1.09100,,,3.941141177,3.354240587
1.09150,,,3.635946769,3.964629402
1.09200,,,1.804780323,4.575018218
1.09250,,,0.8891970999,4.575018218
1.09300,,,0.8891970999,3.964629402
1.09350,,,0.5840026922,3.049046179
1.09400,,,-0.0263861232,2.743851771
1.09450,,,0.2788082845,2.438657364
1.09500,,,1.804780323,1.217879733
1.09550,,,2.720363546,-0.002897897924
1.09600,,,1.194391508,-0.002897897924
1.09650,,,-0.3315805309,1.217879733
1.09700,,,-0.9419693463,1.828268548
1.09750,,,-0.6367749386,2.133462956
1.09800,,,-0.6367749386,2.743851771
1.09850,,,-0.0263861232,4.26982381
1.09900,,,1.499585915,5.490601441
1.09950,,,3.635946769,5.490601441
1.10000,,,4.8567244,4.880212625
1.10050,,,5.772307623,4.26982381
1.10100,,,6.382696439,3.964629402
1.10150,,,6.687890846,3.049046179
1.10200,,,6.382696439,3.049046179
1.10250,,,6.687890846,4.26982381
1.10300,,,7.298279662,5.795795848
1.10350,,,7.298279662,6.711379072
1.10400,,,6.077502031,6.100990256
1.10450,,,4.551529992,4.880212625
1.10500,,,3.635946769,4.26982381
1.10550,,,2.415169138,3.964629402
1.10600,,,0.5840026922,3.964629402
1.10650,,,0.2788082845,3.964629402
1.10700,,,3.025557954,3.964629402
1.10750,,,7.603474069,3.964629402
1.10800,,,9.739834923,4.575018218
1.10850,,,9.129446108,5.185407033
1.10900,,,7.603474069,5.795795848
1.10950,,,6.382696439,6.100990256
1.11000,,,5.467113215,7.016573479
1.11050,,,5.161918808,7.626962295
1.11100,,,6.077502031,7.321767887
1.11150,,,7.298279662,6.711379072
1.11200,,,6.382696439,6.100990256
1.11250,,,3.635946769,5.185407033
1.11300,,,0.8891970999,3.964629402
1.11350,,,1.194391508,3.659434994
1.11400,,,2.109974731,4.26982381
1.11450,,,1.194391508,4.575018218
1.11500,,,-2.773135793,3.659434994
1.11550,,,-6.740663093,1.828268548
1.11600,,,-8.571829539,1.217879733
1.11650,,,-8.571829539,1.523074141
1.11700,,,-7.961440723,1.523074141
1.11750,,,-6.740663093,1.523074141
1.11800,,,-3.993913423,2.438657364
1.11850,,,-0.6367749386,3.964629402
1.11900,,,2.109974731,4.26982381
1.11950,,,3.635946769,4.26982381
1.12000,,,3.941141177,4.575018218
1.12050,,,4.246335585,5.185407033
1.12100,,,3.635946769,5.185407033
1.12150,,,3.025557954,4.575018218
1.12200,,,2.109974731,3.964629402
1.12250,,,0.8891970999,3.049046179
1.12300,,,-0.3315805309,2.133462956
1.12350,,,-0.9419693463,1.523074141
1.12400,,,-0.3315805309,1.217879733
1.12450,,,0.5840026922,1.828268548
1.12500,,,0.8891970999,2.438657364
1.12550,,,1.194391508,2.743851771
1.12600,,,2.109974731,3.049046179
1.12650,,,3.025557954,3.659434994
1.12700,,,2.415169138,3.964629402
1.12750,,,0.8891970999,3.659434994
1.12800,,,0.8891970999,2.743851771
1.12850,,,2.720363546,2.133462956
1.12900,,,4.246335585,2.743851771
1.12950,,,4.246335585,3.964629402
1.13000,,,4.551529992,5.185407033
1.13050,,,5.467113215,5.490601441
1.13100,,,5.772307623,4.880212625
1.13150,,,4.8567244,4.575018218
1.13200,,,3.330752362,4.575018218
1.13250,,,1.499585915,3.964629402
1.13300,,,-0.3315805309,1.828268548
1.13350,,,-2.773135793,-0.002897897924
1.13400,,,-2.773135793,0.9126853252
1.13450,,,-0.0263861232,3.049046179
1.13500,,,2.720363546,3.964629402
1.13550,,,3.330752362,2.438657364
1.13600,,,1.499585915,1.523074141
1.13650,,,-1.247163754,3.659434994
1.13700,,,-3.993913423,6.711379072
1.13750,,,-6.435468685,8.23735111
1.13800,,,-7.351051908,7.626962295
1.13850,,,-7.351051908,6.406184664
1.13900,,,-7.351051908,4.880212625
1.13950,,,-7.656246316,3.049046179
1.14000,,,-7.0458575,1.217879733
1.14050,,,-5.214691054,0.9126853252
1.14100,,,-3.688719016,2.438657364
1.14150,,,-3.383524608,3.659434994
1.14200,,,-3.0783302,3.964629402
1.14250,,,-1.857552569,4.880212625
1.14300,,,-0.3315805309,5.490601441
1.14350,,,-1.247163754,4.880212625
1.14400,,,-3.383524608,3.049046179
1.14450,,,-5.519885462,1.828268548
1.14500,,,-6.130274277,2.133462956
1.14550,,,-4.909496646,2.438657364
1.14600,,,-2.467941385,2.743851771
1.14650,,,-0.0263861232,3.049046179
1.14700,,,1.194391508,3.354240587
1.14750,,,1.499585915,3.354240587
1.14800,,,2.415169138,2.743851771
1.14850,,,4.246335585,3.049046179
1.14900,,,4.551529992,3.354240587
1.14950,,,1.194391508,2.133462956
1.15000,,,-2.773135793,0.3022965098
1.15050,,,-3.688719016,0.6074909175
1.15100,,,-1.247163754,2.743851771
1.15150,,,0.8891970999,3.354240587
1.15200,,,0.5840026922,1.828268548
1.15250,,,-0.3315805309,1.828268548
1.15300,,,-0.6367749386,4.575018218
1.15350,,,-0.3315805309,7.016573479
1.15400,,,-0.6367749386,6.711379072
1.15450,,,-1.247163754,4.880212625
1.15500,,,-0.9419693463,5.490601441
1.15550,,,-0.0263861232,6.711379072
1.15600,,,-0.0263861232,6.711379072
1.15650,,,-0.3315805309,5.795795848
1.15700,,,-0.3315805309,6.100990256
1.15750,,,-0.0263861232,7.016573479
1.15800,,,-0.0263861232,6.406184664
1.15850,,,-0.6367749386,4.575018218
1.15900,,,-0.3315805309,4.880212625
1.15950,,,0.8891970999,7.016573479
1.16000,,,1.804780323,8.542545518
1.16050,,,0.8891970999,7.321767887
1.16100,,,-0.9419693463,5.490601441
1.16150,,,-0.9419693463,4.575018218
1.16200,,,0.5840026922,3.964629402
1.16250,,,2.415169138,3.659434994
1.16300,,,2.415169138,3.964629402
1.16350,,,1.804780323,4.880212625
1.16400,,,1.804780323,5.490601441
1.16450,,,2.720363546,4.880212625
1.16500,,,3.635946769,4.26982381
1.16550,,,4.551529992,4.575018218
1.16600,,,4.8567244,5.490601441
1.16650,,,4.246335585,6.100990256
1.16700,,,2.720363546,5.795795848
1.16750,,,1.194391508,5.490601441
1.16800,,,1.499585915,4.880212625
1.16850,,,2.720363546,5.185407033
1.16900,,,3.941141177,6.406184664
1.16950,,,4.551529992,7.932156702
1.17000,,,4.246335585,8.23735111
1.17050,,,3.635946769,7.626962295
1.17100,,,2.109974731,7.016573479
1.17150,,,0.8891970999,6.406184664
1.17200,,,0.8891970999,5.795795848
1.17250,,,1.804780323,5.185407033
1.17300,,,2.109974731,5.490601441
1.17350,,,1.804780323,6.406184664
1.17400,,,1.194391508,6.406184664
1.17450,,,0.5840026922,5.795795848
1.17500,,,-0.0263861232,5.185407033
1.17550,,,-1.247163754,5.795795848
1.17600,,,-1.857552569,6.100990256
1.17650,,,-1.247163754,5.795795848
1.17700,,,-0.9419693463,5.185407033
1.17750,,,-2.467941385,4.880212625
1.17800,,,-4.909496646,4.26982381
1.17850,,,-6.130274277,3.964629402
1.17900,,,-5.82507987,3.354240587
1.17950,,,-5.82507987,3.049046179
1.18000,,,-7.0458575,2.438657364
1.18050,,,-7.961440723,2.133462956
1.18100,,,-7.351051908,2.743851771
1.18150,,,-5.519885462,3.964629402
1.18200,,,-4.299107831,3.659434994
1.18250,,,-3.993913423,2.438657364
1.18300,,,-3.688719016,1.523074141
1.18350,,,-2.162746977,2.743851771
1.18400,,,-0.3315805309,3.964629402
1.18450,,,1.194391508,3.354240587
1.18500,,,2.415169138,2.133462956
1.18550,,,3.025557954,2.743851771
1.18600,,,3.330752362,4.575018218
1.18650,,,3.025557954,6.100990256
1.18700,,,1.804780323,6.100990256
1.18750,,,0.2788082845,5.490601441
1.18800,,,-1.247163754,4.575018218
1.18850,,,-3.0783302,3.964629402
1.18900,,,-4.604302239,2.743851771
1.18950,,,-5.82507987,2.438657364
1.19000,,,-6.435468685,2.743851771
1.19050,,,-6.435468685,3.049046179
1.19100,,,-6.130274277,3.049046179
1.19150,,,-5.82507987,2.743851771
1.19200,,,-5.519885462,3.354240587
1.19250,,,-4.909496646,3.964629402
1.19300,,,-4.299107831,3.964629402
1.19350,,,-4.604302239,4.575018218
1.19400,,,-5.214691054,4.880212625
1.19450,,,-5.214691054,4.26982381
1.19500,,,-4.604302239,3.049046179
1.19550,,,-4.299107831,2.438657364
1.19600,,,-4.909496646,3.049046179
1.19650,,,-5.519885462,3.354240587
1.19700,,,-4.604302239,2.133462956
1.19750,,,-1.857552569,1.523074141
1.19800,,,0.8891970999,2.743851771
1.19850,,,2.415169138,4.880212625
1.19900,,,3.025557954,5.490601441
1.19950,,,3.635946769,4.575018218
1.20000,,,4.246335585,3.964629402
1.20050,,,4.551529992,3.964629402
1.20100,,,4.246335585,3.964629402
1.20150,,,3.941141177,2.743851771
1.20200,,,3.635946769,1.828268548
1.20250,,,3.330752362,2.133462956
1.20300,,,3.635946769,3.354240587
1.20350,,,4.551529992,4.575018218
1.20400,,,5.772307623,5.795795848
1.20450,,,6.077502031,6.711379072
1.20500,,,4.551529992,6.406184664
1.20550,,,3.330752362,5.795795848
1.20600,,,3.635946769,5.185407033
1.20650,,,4.246335585,5.185407033
1.20700,,,3.635946769,4.575018218
1.20750,,,3.025557954,3.964629402
1.20800,,,3.941141177,4.26982381
1.20850,,,5.467113215,5.490601441
1.20900,,,5.467113215,5.795795848
1.20950,,,3.635946769,5.490601441
1.21000,,,2.415169138,5.490601441
1.21050,,,2.720363546,6.100990256
1.21100,,,2.415169138,5.795795848
1.21150,,,0.5840026922,3.964629402
1.21200,,,-0.9419693463,3.049046179
1.21250,,,-2.467941385,2.743851771
1.21300,,,-4.909496646,2.133462956
1.21350,,,-8.571829539,0.6074909175
1.21400,,,-11.62377362,-0.3080923056
1.21450,,,-12.53935684,0.6074909175
1.21500,,,-12.23416243,1.523074141
1.21550,,,-11.62377362,0.6074909175
1.21600,,,-10.09780158,-0.918481121
1.21650,,,-6.740663093,-0.3080923056
1.21700,,,-1.857552569,2.133462956
1.21750,,,1.804780323,3.964629402
1.21800,,,3.941141177,3.964629402
1.21850,,,3.635946769,2.438657364
1.21900,,,2.109974731,1.828268548
1.21950,,,0.8891970999,2.438657364
1.22000,,,0.8891970999,3.659434994
1.22050,,,2.109974731,4.26982381
1.22100,,,3.025557954,4.880212625
1.22150,,,3.330752362,5.185407033
1.22200,,,3.330752362,5.185407033
1.22250,,,3.025557954,4.575018218
1.22300,,,2.720363546,3.964629402
1.22350,,,3.330752362,4.26982381
1.22400,,,4.551529992,5.490601441
1.22450,,,4.246335585,6.406184664
1.22500,,,0.2788082845,5.795795848
1.22550,,,-5.214691054,3.659434994
1.22600,,,-9.487412762,1.217879733
1.22650,,,-10.70819039,0.3022965098
1.22700,,,-10.40299599,-0.002897897924
1.22750,,,-9.487412762,-0.6132867133
1.22800,,,-7.961440723,-0.3080923056
1.22850,,,-5.214691054,0.3022965098
1.22900,,,-3.383524608,0.9126853252
1.22950,,,-2.773135793,-0.002897897924
1.23000,,,-3.0783302,-1.528869936
1.23050,,,-3.383524608,-1.834064344
1.23100,,,-2.773135793,-0.6132867133
1.23150,,,-1.247163754,1.217879733
1.23200,,,1.194391508,2.438657364
1.23250,,,3.025557954,2.743851771
1.23300,,,2.415169138,2.438657364
1.23350,,,-0.0263861232,1.523074141
1.23400,,,-0.6367749386,1.217879733
1.23450,,,0.5840026922,1.523074141
1.23500,,,2.720363546,1.828268548
1.23550,,,3.330752362,1.828268548
1.23600,,,2.109974731,2.438657364
1.23650,,,1.194391508,3.964629402
1.23700,,,1.194391508,5.795795848
1.23750,,,2.109974731,6.100990256
1.23800,,,3.025557954,5.185407033
1.23850,,,3.635946769,3.964629402
1.23900,,,3.025557954,3.659434994
1.23950,,,2.415169138,2.743851771
1.24000,,,2.109974731,1.217879733
1.24050,,,3.025557954,0.3022965098
1.24100,,,4.246335585,1.217879733
1.24150,,,4.8567244,3.049046179
1.24200,,,4.246335585,3.964629402
1.24250,,,2.720363546,3.049046179
1.24300,,,1.194391508,2.133462956
1.24350,,,-0.0263861232,3.049046179
1.24400,,,-0.0263861232,4.575018218
1.24450,,,-0.0263861232,5.185407033
1.24500,,,-0.0263861232,4.575018218
1.24550,,,-2.162746977,3.659434994
1.24600,,,-4.909496646,2.133462956
1.24650,,,-5.82507987,0.6074909175
1.24700,,,-4.299107831,-1.223675529
1.24750,,,-1.857552569,-0.918481121
1.24800,,,-0.0263861232,1.217879733
1.24850,,,1.194391508,3.659434994
1.24900,,,2.415169138,4.26982381
1.24950,,,3.025557954,3.964629402
1.25000,,,3.330752362,3.964629402
1.25050,,,2.720363546,4.880212625
1.25100,,,2.109974731,5.795795848
1.25150,,,1.499585915,5.795795848
1.25200,,,0.8891970999,5.490601441
1.25250,,,0.5840026922,6.100990256
1.25300,,,1.194391508,7.626962295
1.25350,,,2.415169138,9.152934333
1.25400,,,3.941141177,9.763323149
1.25450,,,5.467113215,9.152934333
1.25500,,,5.772307623,8.23735111
1.25550,,,5.467113215,7.932156702
1.25600,,,4.8567244,7.932156702
1.25650,,,4.551529992,7.932156702
1.25700,,,3.635946769,7.321767887
1.25750,,,1.499585915,5.795795848
1.25800,,,-0.0263861232,4.26982381
1.25850,,,-0.0263861232,3.964629402
1.25900,,,1.804780323,4.575018218
1.25950,,,2.109974731,4.575018218
1.26000,,,-0.0263861232,3.964629402
1.26050,,,-3.0783302,2.743851771
1.26100,,,-3.993913423,2.133462956
1.26150,,,-2.467941385,2.133462956
1.26200,,,-0.0263861232,2.133462956
1.26250,,,2.415169138,2.133462956
1.26300,,,4.551529992,3.049046179
1.26350,,,6.382696439,4.26982381
1.26400,,,6.687890846,4.575018218
1.26450,,,5.772307623,4.575018218
1.26500,,,3.941141177,5.185407033
1.26550,,,2.720363546,6.711379072
1.26600,,,2.720363546,7.321767887
1.26650,,,4.246335585,6.711379072
1.26700,,,5.467113215,6.711379072
1.26750,,,4.8567244,7.626962295
1.26800,,,3.330752362,7.932156702
1.26850,,,3.635946769,7.016573479
1.26900,,,5.161918808,6.406184664
1.26950,,,5.467113215,7.626962295
1.27000,,,1.804780323,8.23735111
1.27050,,,-3.993913423,6.100990256
1.27100,,,-7.961440723,3.964629402
1.27150,,,-6.740663093,3.964629402
1.27200,,,-2.773135793,6.100990256
1.27250,,,-0.0263861232,6.406184664
1.27300,,,0.2788082845,4.575018218
1.27350,,,-0.6367749386,3.964629402
1.27400,,,-1.247163754,4.880212625
1.27450,,,-1.247163754,6.100990256
1.27500,,,-0.9419693463,5.185407033
1.27550,,,-0.6367749386,4.26982381
1.27600,,,-0.6367749386,5.490601441
1.27650,,,-0.6367749386,7.321767887
1.27700,,,-1.247163754,7.016573479
1.27750,,,-1.247163754,5.185407033
1.27800,,,-0.9419693463,4.26982381
1.27850,,,-0.0263861232,4.575018218
1.27900,,,0.2788082845,4.575018218
1.27950,,,1.194391508,3.964629402
1.28000,,,1.194391508,3.659434994
1.28050,,,0.8891970999,4.26982381
1.28100,,,0.8891970999,5.185407033
1.28150,,,1.194391508,4.26982381
1.28200,,,1.194391508,3.354240587
1.28250,,,0.5840026922,3.354240587
1.28300,,,-0.0263861232,4.575018218
1.28350,,,-0.0263861232,4.880212625
1.28400,,,0.5840026922,4.26982381
1.28450,,,0.5840026922,3.659434994
1.28500,,,-0.0263861232,3.964629402
1.28550,,,-0.6367749386,4.575018218
1.28600,,,-0.0263861232,4.880212625
1.28650,,,0.5840026922,4.575018218
1.28700,,,0.8891970999,5.490601441
1.28750,,,-0.0263861232,6.711379072
1.28800,,,-1.552358162,6.711379072
1.28850,,,-3.383524608,4.575018218
1.28900,,,-5.214691054,2.438657364
1.28950,,,-4.909496646,1.828268548
1.29000,,,-3.0783302,3.354240587
1.29050,,,-1.247163754,5.185407033
1.29100,,,-0.0263861232,6.100990256
1.29150,,,0.5840026922,6.406184664
1.29200,,,1.499585915,6.100990256
1.29250,,,1.804780323,5.795795848
1.29300,,,1.194391508,5.795795848
1.29350,,,-0.0263861232,5.185407033
1.29400,,,-1.247163754,3.964629402
1.29450,,,-2.467941385,3.049046179
1.29500,,,-2.773135793,2.438657364
1.29550,,,-1.552358162,2.133462956
1.29600,,,-0.0263861232,2.133462956
1.29650,,,0.8891970999,2.438657364
1.29700,,,0.5840026922,2.743851771
1.29750,,,1.194391508,3.049046179
1.29800,,,2.415169138,3.964629402
1.29850,,,1.499585915,4.575018218
1.29900,,,-1.247163754,5.185407033
1.29950,,,-3.688719016,4.880212625
1.30000,,,-3.993913423,4.26982381
1.30050,,,-3.383524608,4.575018218
1.30100,,,-2.162746977,5.490601441
1.30150,,,-0.0263861232,6.100990256
1.30200,,,3.025557954,5.490601441
1.30250,,,3.025557954,4.26982381
1.30300,,,-0.6367749386,3.659434994
1.30350,,,-3.688719016,3.659434994
1.30400,,,-3.0783302,3.659434994
1.30450,,,-0.6367749386,3.659434994
1.30500,,,-1.247163754,3.964629402
1.30550,,,-3.383524608,3.964629402
1.30600,,,-2.773135793,3.354240587
1.30650,,,0.8891970999,3.049046179
1.30700,,,3.941141177,3.964629402
1.30750,,,3.635946769,4.880212625
1.30800,,,1.499585915,5.185407033
1.30850,,,0.2788082845,4.575018218
1.30900,,,0.5840026922,4.575018218
1.30950,,,1.194391508,4.575018218
1.31000,,,1.499585915,3.964629402
1.31050,,,1.499585915,3.049046179
1.31100,,,2.109974731,3.049046179
1.31150,,,2.720363546,3.964629402
1.31200,,,2.720363546,4.880212625
1.31250,,,1.804780323,3.659434994
1.31300,,,0.5840026922,1.828268548
1.31350,,,0.2788082845,1.217879733
1.31400,,,0.2788082845,1.523074141
1.31450,,,-1.247163754,1.523074141
1.31500,,,-5.519885462,1.523074141
1.31550,,,-9.182218354,2.133462956
1.31600,,,-10.09780158,2.743851771
1.31650,,,-8.571829539,1.828268548
1.31700,,,-7.656246316,0.6074909175
1.31750,,,-7.656246316,0.3022965098
1.31800,,,-6.740663093,0.9126853252
1.31850,,,-4.604302239,1.523074141
1.31900,,,-2.467941385,1.828268548
1.31950,,,-1.552358162,2.743851771
1.32000,,,-2.162746977,3.659434994
1.32050,,,-3.993913423,3.964629402
1.32100,,,-4.909496646,3.659434994
1.32150,,,-3.688719016,3.659434994
1.32200,,,-1.247163754,3.659434994
1.32250,,,-0.0263861232,3.659434994
1.32300,,,-1.247163754,3.049046179
1.32350,,,-2.773135793,3.049046179
1.32400,,,-2.467941385,3.049046179
1.32450,,,-0.9419693463,2.438657364
1.32500,,,-0.9419693463,1.217879733
1.32550,,,-1.857552569,-0.002897897924
1.32600,,,-1.857552569,-0.002897897924
1.32650,,,-1.247163754,0.9126853252
1.32700,,,-1.857552569,2.743851771
1.32750,,,-3.688719016,3.964629402
1.32800,,,-5.519885462,2.743851771
1.32850,,,-6.740663093,-0.002897897924
1.32900,,,-7.656246316,-1.834064344
1.32950,,,-6.740663093,-0.6132867133
1.33000,,,-3.993913423,1.523074141
1.33050,,,-2.162746977,2.743851771
1.33100,,,-2.467941385,2.743851771
1.33150,,,-3.688719016,3.049046179
1.33200,,,-3.383524608,3.964629402
1.33250,,,-2.467941385,4.575018218
1.33300,,,-2.773135793,3.964629402
1.33350,,,-4.299107831,2.743851771
1.33400,,,-5.214691054,2.133462956
1.33450,,,-5.214691054,1.523074141
1.33500,,,-5.214691054,1.523074141
1.33550,,,-4.909496646,3.354240587
1.33600,,,-3.0783302,5.185407033
1.33650,,,-0.3315805309,5.795795848
1.33700,,,-0.0263861232,4.26982381
1.33750,,,-0.6367749386,3.354240587
1.33800,,,-0.6367749386,3.964629402
1.33850,,,0.8891970999,5.795795848
1.33900,,,2.720363546,5.795795848
1.33950,,,2.415169138,3.964629402
1.34000,,,1.499585915,3.659434994
1.34050,,,1.804780323,4.26982381
1.34100,,,3.025557954,6.100990256
1.34150,,,4.246335585,6.406184664
1.34200,,,4.246335585,5.795795848
1.34250,,,3.635946769,5.490601441
1.34300,,,3.330752362,5.795795848
1.34350,,,3.635946769,6.100990256
1.34400,,,3.635946769,6.406184664
1.34450,,,3.635946769,6.711379072
1.34500,,,4.551529992,6.406184664
1.34550,,,5.772307623,5.185407033
1.34600,,,6.687890846,3.964629402
1.34650,,,6.077502031,3.964629402
1.34700,,,4.8567244,4.880212625
1.34750,,,4.551529992,5.490601441
1.34800,,,5.772307623,5.490601441
1.34850,,,6.687890846,5.490601441
1.34900,,,6.382696439,6.406184664
1.34950,,,4.551529992,7.932156702
1.35000,,,3.025557954,8.542545518
1.35050,,,2.720363546,7.321767887
1.35100,,,3.635946769,5.795795848
1.35150,,,4.551529992,4.575018218
1.35200,,,3.941141177,4.575018218
1.35250,,,1.499585915,4.575018218
1.35300,,,-0.9419693463,4.880212625
1.35350,,,-2.162746977,5.185407033
1.35400,,,-2.162746977,5.795795848
1.35450,,,-2.162746977,5.185407033
1.35500,,,-2.162746977,4.575018218
1.35550,,,-1.247163754,4.880212625
1.35600,,,-0.0263861232,6.100990256
1.35650,,,0.8891970999,6.711379072
1.35700,,,0.5840026922,5.490601441
1.35750,,,0.5840026922,4.575018218
1.35800,,,1.194391508,5.185407033
1.35850,,,0.5840026922,5.795795848
1.35900,,,-1.552358162,4.575018218
1.35950,,,-3.993913423,2.438657364
1.36000,,,-4.299107831,1.828268548
1.36050,,,-2.773135793,3.049046179
1.36100,,,-1.552358162,4.26982381
1.36150,,,-1.247163754,4.26982381
1.36200,,,-0.9419693463,3.964629402
1.36250,,,-0.3315805309,3.049046179
1.36300,,,-0.0263861232,2.438657364
1.36350,,,-0.0263861232,1.828268548
1.36400,,,0.2788082845,1.523074141
1.36450,,,1.499585915,1.828268548
1.36500,,,2.720363546,1.828268548
1.36550,,,1.804780323,2.438657364
1.36600,,,-0.0263861232,2.743851771
1.36650,,,-0.9419693463,2.743851771
1.36700,,,-0.3315805309,3.049046179
1.36750,,,0.8891970999,4.26982381
1.36800,,,2.720363546,5.490601441
1.36850,,,3.330752362,4.575018218
1.36900,,,3.941141177,2.438657364
1.36950,,,4.551529992,1.828268548
1.37000,,,6.382696439,3.964629402
1.37050,,,7.908668477,6.406184664
1.37100,,,7.908668477,5.795795848
1.37150,,,7.603474069,3.964629402
1.37200,,,7.298279662,3.964629402
1.37250,,,7.298279662,4.880212625
1.37300,,,6.382696439,5.490601441
1.37350,,,3.941141177,4.575018218
1.37400,,,0.8891970999,3.354240587
1.37450,,,-0.3315805309,2.438657364
1.37500,,,-0.0263861232,1.217879733
1.37550,,,0.8891970999,0.9126853252
1.37600,,,2.109974731,1.523074141
1.37650,,,2.109974731,2.743851771
1.37700,,,0.5840026922,2.743851771
1.37750,,,-1.247163754,1.828268548
1.37800,,,-2.162746977,0.9126853252
1.37850,,,-0.6367749386,0.9126853252
1.37900,,,1.194391508,0.9126853252
1.37950,,,1.499585915,0.6074909175
1.38000,,,-0.3315805309,0.3022965098
1.38050,,,-2.773135793,-0.002897897924
1.38100,,,-3.688719016,-0.3080923056
1.38150,,,-2.773135793,0.3022965098
1.38200,,,-1.857552569,1.828268548
1.38250,,,-1.247163754,3.659434994
1.38300,,,-0.3315805309,3.964629402
1.38350,,,0.8891970999,3.659434994
1.38400,,,2.720363546,3.354240587
1.38450,,,3.635946769,3.354240587
1.38500,,,3.635946769,3.659434994
1.38550,,,3.635946769,3.659434994
1.38600,,,4.551529992,3.964629402
1.38650,,,5.161918808,4.26982381
1.38700,,,5.772307623,4.880212625
1.38750,,,5.772307623,5.185407033
1.38800,,,5.772307623,5.185407033
1.38850,,,5.772307623,5.490601441
1.38900,,,5.161918808,5.795795848
1.38950,,,4.8567244,6.100990256
1.39000,,,5.772307623,5.795795848
1.39050,,,6.993085254,5.185407033
1.39100,,,6.687890846,3.964629402
1.39150,,,4.551529992,3.354240587
1.39200,,,2.109974731,2.438657364
1.39250,,,0.5840026922,2.438657364
1.39300,,,-0.0263861232,3.049046179
1.39350,,,-1.247163754,3.659434994
1.39400,,,-2.467941385,3.964629402
1.39450,,,-2.467941385,3.354240587
1.39500,,,-1.857552569,3.659434994
1.39550,,,-1.247163754,4.26982381
1.39600,,,-1.247163754,5.185407033
1.39650,,,-1.857552569,4.880212625
1.39700,,,-2.773135793,4.575018218
1.39750,,,-3.383524608,4.880212625
1.39800,,,-3.383524608,4.880212625
1.39850,,,-2.467941385,3.964629402
1.39900,,,-1.247163754,3.049046179
1.39950,,,-0.3315805309,3.659434994
1.40000,,,0.5840026922,4.575018218
1.40050,,,1.499585915,5.185407033
1.40100,,,1.499585915,4.26982381
1.40150,,,0.8891970999,2.743851771
1.40200,,,0.8891970999,2.743851771
1.40250,,,1.804780323,3.964629402
1.40300,,,3.025557954,6.406184664
1.40350,,,4.246335585,7.626962295
1.40400,,,4.246335585,7.016573479
1.40450,,,3.025557954,6.406184664
1.40500,,,1.194391508,6.406184664
1.40550,,,-0.0263861232,7.016573479
1.40600,,,0.2788082845,7.016573479
1.40650,,,0.8891970999,6.100990256
1.40700,,,0.5840026922,5.185407033
1.40750,,,-1.552358162,5.185407033
1.40800,,,-4.299107831,4.880212625
1.40850,,,-6.740663093,4.575018218
1.40900,,,-8.266635131,5.185407033
1.40950,,,-7.351051908,6.406184664
1.41000,,,-4.604302239,6.406184664
1.41050,,,-2.162746977,5.490601441
1.41100,,,-2.467941385,5.795795848
1.41150,,,-3.993913423,6.711379072
1.41200,,,-4.909496646,7.016573479
1.41250,,,-5.214691054,5.795795848
1.41300,,,-6.130274277,3.964629402
1.41350,,,-8.266635131,3.049046179
1.41400,,,-8.877023947,2.438657364
1.41450,,,-7.961440723,2.133462956
1.41500,,,-6.435468685,3.049046179
1.41550,,,-6.740663093,4.575018218
1.41600,,,-7.961440723,5.185407033
1.41650,,,-9.487412762,3.354240587
1.41700,,,-10.40299599,1.217879733
1.41750,,,-10.09780158,1.523074141
1.41800,,,-8.266635131,3.049046179
1.41850,,,-5.214691054,3.354240587
1.41900,,,-2.773135793,2.438657364
1.41950,,,-1.552358162,2.743851771
1.42000,,,-1.552358162,3.964629402
1.42050,,,-1.247163754,5.490601441
1.42100,,,-0.9419693463,5.795795848
1.42150,,,-0.6367749386,5.490601441
1.42200,,,-0.0263861232,5.185407033
1.42250,,,0.5840026922,4.575018218
1.42300,,,1.499585915,4.26982381
1.42350,,,2.109974731,4.26982381
1.42400,,,2.415169138,3.964629402
1.42450,,,1.499585915,3.659434994
1.42500,,,-0.0263861232,2.743851771
1.42550,,,-2.467941385,3.049046179
1.42600,,,-3.0783302,3.659434994
1.42650,,,-2.162746977,3.659434994
1.42700,,,-0.9419693463,3.354240587
1.42750,,,-0.0263861232,3.049046179
1.42800,,,0.8891970999,2.743851771
1.42850,,,3.025557954,3.049046179
1.42900,,,4.8567244,3.354240587
1.42950,,,4.551529992,3.964629402
1.43000,,,3.330752362,4.26982381
1.43050,,,3.025557954,4.26982381
1.43100,,,4.246335585,3.964629402
1.43150,,,5.772307623,3.964629402
1.43200,,,6.382696439,3.659434994
1.43250,,,6.077502031,3.354240587
1.43300,,,5.772307623,3.964629402
1.43350,,,4.8567244,4.26982381
1.43400,,,2.415169138,3.964629402
1.43450,,,0.5840026922,3.049046179
1.43500,,,0.2788082845,2.438657364
1.43550,,,0.8891970999,3.354240587
1.43600,,,1.194391508,4.575018218
1.43650,,,0.2788082845,4.880212625
1.43700,,,-0.0263861232,4.880212625
1.43750,,,-0.3315805309,4.880212625
1.43800,,,-0.6367749386,5.490601441
1.43850,,,-1.552358162,5.795795848
1.43900,,,-1.857552569,6.100990256
1.43950,,,-0.9419693463,6.406184664
1.44000,,,1.194391508,6.406184664
1.44050,,,3.025557954,5.490601441
1.44100,,,2.415169138,4.26982381
1.44150,,,0.2788082845,3.964629402
1.44200,,,-1.552358162,4.26982381
1.44250,,,-1.552358162,4.26982381
1.44300,,,-0.6367749386,3.964629402
1.44350,,,-1.247163754,3.049046179
1.44400,,,-3.688719016,2.133462956
1.44450,,,-5.519885462,1.523074141
1.44500,,,-4.604302239,0.9126853252
1.44550,,,-2.162746977,0.9126853252
1.44600,,,-0.0263861232,1.523074141
1.44650,,,0.2788082845,2.133462956
1.44700,,,0.8891970999,3.049046179
1.44750,,,1.194391508,3.964629402
1.44800,,,0.8891970999,5.185407033
1.44850,,,0.5840026922,5.490601441
1.44900,,,1.804780323,5.185407033
1.44950,,,3.941141177,5.185407033
1.45000,,,4.551529992,5.185407033
1.45050,,,2.720363546,4.575018218
1.45100,,,-0.6367749386,3.354240587
1.45150,,,-3.993913423,2.133462956
1.45200,,,-7.0458575,1.217879733
1.45250,,,-8.877023947,0.6074909175
1.45300,,,-9.79260717,0.6074909175
1.45350,,,-9.79260717,0.9126853252
1.45400,,,-10.09780158,1.217879733
1.45450,,,-10.09780158,1.217879733
1.45500,,,-9.487412762,1.523074141
1.45550,,,-8.571829539,2.438657364
1.45600,,,-7.351051908,3.354240587
1.45650,,,-6.435468685,3.659434994
1.45700,,,-5.214691054,2.743851771
1.45750,,,-4.299107831,2.133462956
1.45800,,,-4.299107831,2.743851771
1.45850,,,-3.993913423,3.964629402
1.45900,,,-2.467941385,4.575018218
1.45950,,,-0.6367749386,3.964629402
1.46000,,,-0.6367749386,3.354240587
1.46050,,,-2.467941385,2.743851771
1.46100,,,-3.0783302,3.049046179
1.46150,,,-1.857552569,2.743851771
1.46200,,,-0.6367749386,1.828268548
1.46250,,,-1.247163754,1.523074141
1.46300,,,-3.383524608,2.743851771
1.46350,,,-4.299107831,3.964629402
1.46400,,,-3.383524608,3.964629402
1.46450,,,-0.6367749386,3.049046179
1.46500,,,1.194391508,3.659434994
1.46550,,,2.109974731,4.880212625
1.46600,,,0.8891970999,5.490601441
1.46650,,,-0.3315805309,4.880212625
1.46700,,,-0.0263861232,4.880212625
1.46750,,,3.025557954,6.100990256
1.46800,,,5.772307623,7.626962295
1.46850,,,6.687890846,7.626962295
1.46900,,,6.993085254,7.016573479
1.46950,,,8.8242517,7.626962295
1.47000,,,10.35022374,8.542545518
1.47050,,,10.35022374,8.23735111
1.47100,,,8.519057292,7.321767887
1.47150,,,6.077502031,7.016573479
1.47200,,,3.635946769,7.321767887
1.47250,,,1.194391508,6.100990256
1.47300,,,0.8891970999,4.575018218
1.47350,,,3.330752362,4.26982381
1.47400,,,6.382696439,5.795795848
1.47450,,,6.687890846,7.321767887
1.47500,,,3.941141177,7.321767887
1.47550,,,0.2788082845,6.406184664
1.47600,,,-2.162746977,5.795795848
1.47650,,,-3.993913423,5.185407033
1.47700,,,-5.519885462,3.964629402
1.47750,,,-6.130274277,3.354240587
1.47800,,,-5.519885462,2.743851771
1.47850,,,-4.909496646,2.133462956
1.47900,,,-5.214691054,0.9126853252
1.47950,,,-5.214691054,0.3022965098
1.48000,,,-4.909496646,0.9126853252
1.48050,,,-4.604302239,1.828268548
1.48100,,,-3.383524608,2.743851771
1.48150,,,-0.9419693463,3.659434994
1.48200,,,2.415169138,4.880212625
1.48250,,,3.941141177,5.795795848
1.48300,,,1.499585915,5.185407033
1.48350,,,-0.6367749386,3.964629402
1.48400,,,-0.0263861232,3.354240587
1.48450,,,3.330752362,2.438657364
1.48500,,,5.467113215,2.133462956
1.48550,,,3.635946769,2.133462956
1.48600,,,0.2788082845,2.743851771
1.48650,,,-1.857552569,3.354240587
1.48700,,,-3.0783302,3.659434994
1.48750,,,-4.604302239,3.659434994
1.48800,,,-6.130274277,3.964629402
1.48850,,,-6.130274277,3.964629402
1.48900,,,-3.688719016,3.964629402
1.48950,,,-0.0263861232,4.575018218
1.49000,,,2.720363546,5.490601441
1.49050,,,3.941141177,5.490601441
1.49100,,,3.025557954,4.26982381
1.49150,,,1.499585915,3.354240587
1.49200,,,0.5840026922,3.354240587
1.49250,,,-0.0263861232,4.26982381
1.49300,,,-0.0263861232,4.880212625
1.49350,,,1.194391508,4.880212625
1.49400,,,3.330752362,4.880212625
1.49450,,,4.8567244,5.490601441
1.49500,,,4.8567244,5.490601441
1.49550,,,4.246335585,5.185407033
1.49600,,,4.8567244,4.575018218
1.49650,,,6.382696439,3.964629402
1.49700,,,6.993085254,3.659434994
1.49750,,,6.687890846,3.354240587
1.49800,,,5.772307623,3.659434994
1.49850,,,5.161918808,3.964629402
1.49900,,,4.246335585,4.26982381
1.49950,,,3.025557954,4.575018218
1.50000,,,2.720363546,4.880212625
1.50050,,,3.635946769,5.185407033
1.50100,,,5.772307623,5.795795848
1.50150,,,6.993085254,6.711379072
1.50200,,,6.382696439,6.711379072
1.50250,,,4.246335585,6.100990256
1.50300,,,3.025557954,5.490601441
1.50350,,,3.635946769,5.795795848
1.50400,,,4.8567244,6.406184664
1.50450,,,3.941141177,5.795795848
1.50500,,,1.499585915,4.26982381
1.50550,,,-0.0263861232,3.659434994
1.50600,,,0.8891970999,3.659434994
1.50650,,,2.415169138,3.659434994
1.50700,,,2.415169138,2.438657364
1.50750,,,1.194391508,1.523074141
1.50800,,,0.2788082845,1.828268548
1.50850,,,-0.0263861232,2.438657364
1.50900,,,-0.0263861232,2.438657364
1.50950,,,-0.0263861232,2.743851771
1.51000,,,0.2788082845,3.964629402
1.51050,,,0.8891970999,5.490601441
1.51100,,,0.2788082845,5.185407033
1.51150,,,-0.3315805309,3.354240587
1.51200,,,0.2788082845,1.523074141
1.51250,,,3.025557954,1.217879733
1.51300,,,5.161918808,2.438657364
1.51350,,,5.161918808,3.354240587
1.51400,,,3.941141177,3.659434994
1.51450,,,2.720363546,3.354240587
1.51500,,,1.804780323,3.354240587
1.51550,,,0.8891970999,3.659434994
1.51600,,,0.5840026922,3.659434994
1.51650,,,1.194391508,3.049046179
1.51700,,,2.415169138,2.133462956
1.51750,,,2.109974731,2.133462956
1.51800,,,0.5840026922,2.743851771
1.51850,,,-0.9419693463,3.354240587
1.51900,,,-1.247163754,2.743851771
1.51950,,,-0.3315805309,2.438657364
1.52000,,,-0.0263861232,3.659434994
1.52050,,,-0.0263861232,4.575018218
1.52100,,,-0.0263861232,4.575018218
1.52150,,,-0.0263861232,3.964629402
1.52200,,,-0.6367749386,3.964629402
1.52250,,,-2.773135793,4.26982381
1.52300,,,-4.299107831,3.354240587
1.52350,,,-3.688719016,1.828268548
1.52400,,,-0.9419693463,1.523074141
1.52450,,,1.499585915,2.743851771
1.52500,,,2.109974731,3.049046179
1.52550,,,2.109974731,2.438657364
1.52600,,,3.330752362,2.438657364
1.52650,,,5.467113215,3.659434994
1.52700,,,6.687890846,4.575018218
1.52750,,,5.467113215,4.26982381
1.52800,,,3.941141177,3.964629402
1.52850,,,3.330752362,3.964629402
1.52900,,,3.941141177,3.659434994
1.52950,,,4.246335585,3.354240587
1.53000,,,3.330752362,3.659434994
1.53050,,,1.804780323,3.964629402
1.53100,,,1.499585915,4.26982381
1.53150,,,2.109974731,3.964629402
1.53200,,,2.720363546,3.964629402
1.53250,,,2.109974731,4.575018218
1.53300,,,1.194391508,5.490601441
1.53350,,,1.194391508,5.795795848
1.53400,,,2.109974731,5.490601441
1.53450,,,3.025557954,6.100990256
1.53500,,,2.720363546,6.711379072
1.53550,,,0.8891970999,6.711379072
1.53600,,,-1.247163754,5.185407033
1.53650,,,-4.299107831,3.964629402
1.53700,,,-6.130274277,2.743851771
1.53750,,,-6.435468685,2.438657364
1.53800,,,-4.909496646,3.049046179
1.53850,,,-3.383524608,3.964629402
1.53900,,,-2.162746977,3.964629402
1.53950,,,-1.552358162,3.659434994
1.54000,,,-1.552358162,3.354240587
1.54050,,,-2.773135793,3.354240587
1.54100,,,-4.909496646,3.964629402
1.54150,,,-6.435468685,4.575018218
1.54200,,,-6.435468685,4.26982381
1.54250,,,-5.519885462,3.354240587
1.54300,,,-4.604302239,2.743851771
1.54350,,,-3.383524608,3.964629402
1.54400,,,-1.857552569,4.880212625
1.54450,,,-1.552358162,4.26982381
1.54500,,,-2.467941385,2.133462956
1.54550,,,-3.0783302,1.217879733
1.54600,,,-1.552358162,2.743851771
1.54650,,,-0.0263861232,4.26982381
1.54700,,,0.2788082845,3.964629402
1.54750,,,-0.9419693463,3.354240587
1.54800,,,-1.247163754,3.964629402
1.54850,,,-0.6367749386,5.490601441
1.54900,,,-0.6367749386,5.185407033
1.54950,,,-2.162746977,3.964629402
1.55000,,,-3.993913423,3.049046179
1.55050,,,-3.993913423,2.743851771
1.55100,,,-3.0783302,2.133462956
1.55150,,,-3.383524608,1.217879733
1.55200,,,-4.299107831,2.133462956
1.55250,,,-3.688719016,3.964629402
1.55300,,,-2.467941385,4.880212625
1.55350,,,-2.467941385,4.880212625
1.55400,,,-3.688719016,4.880212625
1.55450,,,-4.909496646,4.880212625
1.55500,,,-5.82507987,4.26982381
1.55550,,,-7.656246316,3.049046179
1.55600,,,-10.09780158,2.133462956
1.55650,,,-10.70819039,2.438657364
1.55700,,,-7.656246316,3.659434994
1.55750,,,-3.0783302,3.964629402
1.55800,,,-0.6367749386,3.659434994
1.55850,,,-0.6367749386,3.354240587
1.55900,,,-0.9419693463,3.659434994
1.55950,,,-0.0263861232,4.575018218
1.56000,,,0.2788082845,4.880212625
1.56050,,,0.5840026922,4.575018218
1.56100,,,-0.0263861232,3.964629402
1.56150,,,-0.6367749386,3.354240587
1.56200,,,-1.552358162,2.438657364
1.56250,,,-1.247163754,1.217879733
1.56300,,,-0.0263861232,0.6074909175
1.56350,,,1.194391508,2.133462956
1.56400,,,2.109974731,4.880212625
1.56450,,,2.415169138,6.100990256
1.56500,,,2.109974731,4.575018218
1.56550,,,1.499585915,3.049046179
1.56600,,,0.2788082845,3.659434994
1.56650,,,-0.0263861232,4.575018218
1.56700,,,1.194391508,3.964629402
1.56750,,,2.415169138,2.438657364
1.56800,,,2.415169138,1.217879733
1.56850,,,0.8891970999,2.133462956
1.56900,,,-0.0263861232,3.354240587
1.56950,,,0.2788082845,3.659434994
1.57000,,,1.499585915,3.354240587
1.57050,,,2.415169138,3.049046179
1.57100,,,2.720363546,3.354240587
1.57150,,,1.804780323,3.964629402
1.57200,,,-0.0263861232,3.964629402
1.57250,,,-1.552358162,3.354240587
1.57300,,,-1.857552569,3.354240587
1.57350,,,-0.9419693463,3.964629402
1.57400,,,-0.3315805309,5.185407033
1.57450,,,0.2788082845,5.795795848
1.57500,,,1.499585915,5.185407033
1.57550,,,2.720363546,5.185407033
1.57600,,,2.415169138,5.795795848
1.57650,,,0.5840026922,5.490601441
1.57700,,,-0.0263861232,3.964629402
1.57750,,,0.2788082845,3.354240587
1.57800,,,1.499585915,3.964629402
1.57850,,,1.499585915,3.964629402
1.57900,,,0.2788082845,2.438657364
1.57950,,,-0.9419693463,0.3022965098
1.58000,,,-0.9419693463,0.3022965098
1.58050,,,-0.0263861232,1.523074141
1.58100,,,1.499585915,2.743851771
1.58150,,,2.415169138,3.354240587
1.58200,,,1.499585915,3.964629402
1.58250,,,-0.0263861232,5.185407033
1.58300,,,-1.552358162,5.795795848
1.58350,,,-2.162746977,4.575018218
1.58400,,,-2.773135793,3.659434994
1.58450,,,-4.604302239,3.049046179
1.58500,,,-6.740663093,2.743851771
1.58550,,,-9.182218354,3.354240587
1.58600,,,-10.40299599,4.26982381
1.58650,,,-9.487412762,6.406184664
1.58700,,,-6.435468685,7.321767887
1.58750,,,-3.688719016,7.016573479
1.58800,,,-3.688719016,5.185407033
1.58850,,,-7.0458575,3.659434994
1.58900,,,-10.09780158,2.438657364
1.58950,,,-9.487412762,2.438657364
1.59000,,,-5.214691054,3.659434994
1.59050,,,-1.552358162,4.575018218
1.59100,,,-0.3315805309,4.880212625
1.59150,,,-1.247163754,4.26982381
1.59200,,,-2.467941385,3.964629402
1.59250,,,-2.467941385,4.26982381
1.59300,,,-0.9419693463,4.880212625
1.59350,,,0.8891970999,4.575018218
1.59400,,,1.804780323,3.964629402
1.59450,,,1.194391508,3.659434994
1.59500,,,0.5840026922,3.964629402
1.59550,,,2.415169138,3.964629402
1.59600,,,4.551529992,3.964629402
1.59650,,,4.246335585,3.964629402
1.59700,,,2.109974731,3.964629402
1.59750,,,1.194391508,3.964629402
1.59800,,,1.194391508,3.964629402
1.59850,,,0.8891970999,4.575018218
1.59900,,,0.2788082845,4.575018218
1.59950,,,1.499585915,3.964629402
1.60000,,,3.025557954,3.659434994
1.60050,,,2.109974731,3.354240587
1.60100,,,-0.0263861232,3.659434994
1.60150,,,-0.3315805309,3.964629402
1.60200,,,1.499585915,4.575018218
1.60250,,,0.2788082845,4.880212625
1.60300,,,-5.82507987,4.26982381
1.60350,,,-11.62377362,2.743851771
1.60400,,,-11.92896802,2.133462956
1.60450,,,-8.571829539,3.049046179
1.60500,,,-6.130274277,3.964629402
1.60550,,,-4.604302239,3.964629402
1.60600,,,-1.857552569,3.659434994
1.60650,,,1.194391508,3.354240587
1.60700,,,3.025557954,3.964629402
1.60750,,,2.415169138,3.964629402
1.60800,,,2.109974731,3.964629402
1.60850,,,2.720363546,3.964629402
1.60900,,,2.415169138,4.880212625
1.60950,,,1.499585915,5.490601441
1.61000,,,1.499585915,5.795795848
1.61050,,,3.025557954,5.490601441
1.61100,,,4.8567244,5.185407033
1.61150,,,6.687890846,3.964629402
1.61200,,,7.603474069,2.743851771
1.61250,,,6.077502031,1.523074141
1.61300,,,2.720363546,1.217879733
1.61350,,,-0.3315805309,1.828268548
1.61400,,,-1.552358162,2.438657364
1.61450,,,-0.6367749386,2.438657364
1.61500,,,0.8891970999,2.438657364
1.61550,,,2.109974731,3.049046179
1.61600,,,2.720363546,3.964629402
1.61650,,,2.720363546,4.880212625
1.61700,,,2.720363546,5.490601441
1.61750,,,3.635946769,6.100990256
1.61800,,,4.551529992,7.016573479
1.61850,,,4.551529992,7.932156702
1.61900,,,3.941141177,8.23735111
1.61950,,,4.246335585,7.321767887
1.62000,,,5.467113215,6.406184664
1.62050,,,5.772307623,7.016573479
1.62100,,,5.467113215,8.23735111
1.62150,,,5.161918808,8.542545518
1.62200,,,5.772307623,7.932156702
1.62250,,,6.077502031,8.23735111
1.62300,,,5.467113215,9.458128741
1.62350,,,4.551529992,9.763323149
1.62400,,,3.330752362,8.23735111
1.62450,,,1.804780323,6.100990256
1.62500,,,1.194391508,6.711379072
1.62550,,,2.415169138,9.763323149
1.62600,,,5.161918808,11.59448959
1.62650,,,5.772307623,10.67890637
1.62700,,,4.246335585,8.23735111
1.62750,,,2.415169138,6.711379072
1.62800,,,1.499585915,6.406184664
1.62850,,,-0.0263861232,4.880212625
1.62900,,,-2.467941385,2.438657364
1.62950,,,-3.993913423,-0.002897897924
1.63000,,,-2.773135793,-0.3080923056
1.63050,,,-1.247163754,1.217879733
1.63100,,,-1.552358162,2.438657364
1.63150,,,-2.773135793,2.743851771
1.63200,,,-2.162746977,2.438657364
1.63250,,,-0.0263861232,1.828268548
1.63300,,,1.499585915,1.523074141
1.63350,,,2.720363546,2.133462956
1.63400,,,3.941141177,2.743851771
1.63450,,,5.772307623,2.743851771
1.63500,,,6.382696439,2.438657364
1.63550,,,5.467113215,2.438657364
1.63600,,,3.941141177,3.659434994
1.63650,,,3.025557954,3.964629402
1.63700,,,2.720363546,3.964629402
1.63750,,,3.025557954,4.26982381
1.63800,,,2.415169138,5.795795848
1.63850,,,1.194391508,7.016573479
1.63900,,,0.2788082845,6.711379072
1.63950,,,-0.0263861232,4.880212625
1.64000,,,0.8891970999,3.964629402
1.64050,,,1.804780323,3.964629402
1.64100,,,2.109974731,3.964629402
1.64150,,,2.720363546,3.659434994
1.64200,,,3.330752362,3.049046179
1.64250,,,2.720363546,3.659434994
1.64300,,,0.2788082845,4.26982381
1.64350,,,-1.552358162,4.880212625
1.64400,,,-2.467941385,4.575018218
1.64450,,,-2.467941385,3.354240587
1.64500,,,-3.383524608,1.523074141
1.64550,,,-4.909496646,0.6074909175
1.64600,,,-4.909496646,1.217879733
1.64650,,,-2.467941385,2.133462956
1.64700,,,1.194391508,2.133462956
1.64750,,,4.246335585,1.828268548
1.64800,,,5.161918808,2.743851771
1.64850,,,4.246335585,3.964629402
1.64900,,,2.109974731,3.964629402
1.64950,,,0.5840026922,3.659434994
1.65000,,,-0.0263861232,3.354240587
1.65050,,,-0.3315805309,3.964629402
1.65100,,,-0.6367749386,3.659434994
1.65150,,,-1.552358162,2.133462956
1.65200,,,-2.162746977,1.828268548
1.65250,,,-0.9419693463,3.354240587
1.65300,,,0.2788082845,4.880212625
1.65350,,,0.5840026922,5.185407033
1.65400,,,0.2788082845,4.26982381
1.65450,,,1.194391508,4.26982381
1.65500,,,3.330752362,4.575018218
1.65550,,,3.330752362,4.575018218
1.65600,,,1.194391508,3.964629402
1.65650,,,-0.9419693463,3.049046179
1.65700,,,-0.9419693463,1.828268548
1.65750,,,-1.552358162,0.3022965098
1.65800,,,-4.299107831,-0.002897897924
1.65850,,,-7.656246316,0.9126853252
1.65900,,,-7.656246316,1.523074141
1.65950,,,-5.519885462,1.828268548
1.66000,,,-4.909496646,2.133462956
1.66050,,,-6.435468685,2.438657364
1.66100,,,-7.656246316,2.438657364
1.66150,,,-7.351051908,1.217879733
1.66200,,,-6.435468685,0.9126853252
1.66250,,,-5.214691054,2.133462956
1.66300,,,-3.383524608,3.964629402
1.66350,,,-1.857552569,3.964629402
1.66400,,,-1.552358162,3.354240587
1.66450,,,-3.0783302,3.049046179
1.66500,,,-3.993913423,3.354240587
1.66550,,,-3.0783302,3.354240587
1.66600,,,-2.162746977,3.354240587
1.66650,,,-2.467941385,3.659434994
1.66700,,,-1.857552569,4.26982381
1.66750,,,-0.0263861232,4.575018218
1.66800,,,1.499585915,4.575018218
1.66850,,,0.5840026922,3.964629402
1.66900,,,-0.9419693463,3.049046179
1.66950,,,-1.247163754,3.049046179
1.67000,,,-0.3315805309,4.26982381
1.67050,,,-0.0263861232,6.711379072
1.67100,,,-0.6367749386,8.23735111
1.67150,,,-0.6367749386,7.626962295
1.67200,,,-0.0263861232,5.795795848
1.67250,,,-0.0263861232,4.26982381
1.67300,,,-1.857552569,4.26982381
1.67350,,,-3.688719016,4.575018218
1.67400,,,-4.299107831,4.575018218
1.67450,,,-3.688719016,3.964629402
1.67500,,,-3.0783302,3.659434994
1.67550,,,-2.467941385,3.354240587
